3195.001953 0.014082
3194.296875 0.014079
3193.590820 0.010558
3192.884766 0.013195
3192.178711 0.009675
3191.472656 0.010553
3190.765625 0.007034
3190.059570 0.001758
3189.352539 0.007032
3188.646484 0.003515
3187.939453 0.004394
3187.232422 0.007907
3186.525391 0.011420
3185.818359 0.013175
3185.111328 0.013173
3184.404297 0.010536
3183.696289 0.017558
3182.989258 0.005267
3182.281250 0.010531
3181.573242 0.016672
3180.865234 0.010528
3180.157227 0.009649
3179.449219 0.008771
3178.741211 0.011400
3178.033203 0.012275
3177.324219 0.010520
3176.616211 0.004383
3175.907227 0.006135
3175.198242 0.007886
3174.489258 0.010513
3173.780273 0.007883
3173.071289 0.011385
3172.362305 0.007881
3171.652344 0.010506
3170.943359 0.007003
3170.233398 0.016630
3169.523438 0.006126
3168.814453 0.004375
3168.104492 0.012247
3167.394531 0.009621
3166.683594 0.014867
3165.973633 0.010493
3165.263672 0.010491
3164.552734 0.013986
3163.841797 0.008740
3163.130859 0.014855
3162.420898 0.010484
3161.709961 0.002621
3160.998047 0.008734
3160.287109 0.019212
3159.576172 0.013097
3158.864258 0.009603
3158.153320 0.008728
3157.441406 0.006109
3156.729492 0.003490
3156.017578 0.012214
3155.305664 0.006106
3154.593750 0.018315
3153.880859 0.013080
3153.168945 0.008718
3152.456055 0.009589
3151.744141 0.017431
3151.031250 0.011328
3150.318359 0.008713
3149.605469 0.010453
3148.892578 0.013065
3148.178711 0.006967
3147.465820 0.010448
3146.751953 0.008705
3146.039063 0.009574
3145.325195 0.005222
3144.611328 0.015662
3143.897461 0.011310
3143.183594 0.009568
3142.468750 0.007827
3141.754883 0.010434
3141.041016 0.013041
3140.326172 0.005215
3139.611328 0.011298
3138.896484 0.010428
3138.181641 0.013032
3137.466797 0.005212
3136.751953 0.011291
3136.037109 0.007815
3135.321289 0.012155
3134.605469 0.012153
3133.890625 0.014755
3133.174805 0.014753
3132.458984 0.013015
3131.743164 0.006073
3131.027344 0.012143
3130.310547 0.011274
3129.594727 0.008671
3128.877930 0.012137
3128.161133 0.009535
3127.445313 0.017333
3126.728516 0.000866
3126.010742 0.009530
3125.293945 0.012127
3124.577148 0.006062
3123.859375 0.012123
3123.142578 0.012121
3122.424805 0.011253
3121.707031 0.006058
3120.989258 0.011249
3120.271484 0.014708
3119.553711 0.019896
3118.835938 0.011243
3118.117188 0.014700
3117.399414 0.012969
3116.680664 0.006916
3115.961914 0.012100
3115.243164 0.015555
3114.524414 0.004320
3113.805664 0.019005
3113.086914 0.014683
3112.367188 0.004318
3111.648438 0.008634
3110.928711 0.015539
3110.208984 0.006905
3109.489258 0.014670
3108.769531 0.008628
3108.049805 0.015528
3107.329102 0.018975
3106.609375 0.015523
3105.888672 0.010347
3105.168945 0.007759
3104.448242 0.024134
3103.727539 0.006894
3103.006836 0.006893
3102.285156 0.012061
3101.564453 0.011197
3100.843750 0.004306
3100.122070 0.010332
3099.400391 0.006026
3098.678711 0.009468
3097.957031 0.014630
3097.235352 0.013767
3096.513672 0.015485
3095.791992 0.011182
3095.069336 0.017200
3094.346680 0.008598
3093.625000 0.013755
3092.902344 0.014612
3092.179688 0.013750
3091.457031 0.011170
3090.733398 0.012027
3090.010742 0.009448
3089.287109 0.011164
3088.564453 0.015456
3087.840820 0.009444
3087.117188 0.011159
3086.393555 0.016306
3085.669922 0.012013
3084.946289 0.015442
3084.221680 0.014582
3083.498047 0.014579
3082.773438 0.012862
3082.048828 0.012002
3081.324219 0.017143
3080.599609 0.010284
3079.875000 0.017137
3079.149414 0.018848
3078.424805 0.010279
3077.699219 0.014559
3076.974609 0.017125
3076.249023 0.015410
3075.523438 0.011127
3074.797852 0.011981
3074.071289 0.013690
3073.345703 0.015399
3072.619141 0.022239
3071.893555 0.015394
3071.166992 0.010261
3070.440430 0.018808
3069.713867 0.012821
3068.987305 0.011964
3068.259766 0.011962
3067.533203 0.011106
3066.805664 0.016229
3066.079102 0.011956
3065.351563 0.020492
3064.624023 0.018781
3063.896484 0.011950
3063.168945 0.013654
3062.440430 0.014505
3061.712891 0.014502
3060.984375 0.014500
3060.255859 0.010233
3059.527344 0.017053
3058.798828 0.011082
3058.070313 0.015342
3057.341797 0.006817
3056.613281 0.017892
3055.883789 0.011074
3055.154297 0.011072
3054.424805 0.012773
3053.695313 0.010217
3052.965820 0.014471
3052.236328 0.026384
3051.506836 0.014466
3050.776367 0.012762
3050.046875 0.018714
3049.316406 0.016160
3048.585938 0.016157
3047.855469 0.011903
3047.125000 0.018701
3046.393555 0.018698
3045.663086 0.018694
3044.931641 0.021240
3044.201172 0.008494
3043.469727 0.012739
3042.738281 0.016983
3042.006836 0.017828
3041.275391 0.015279
3040.542969 0.021217
3039.811523 0.005091
3039.079102 0.018664
3038.346680 0.013571
3037.614258 0.011025
3036.881836 0.016958
3036.149414 0.014412
3035.416992 0.018647
3034.683594 0.015254
3033.951172 0.022030
3033.217773 0.014401
3032.484375 0.023716
3031.750977 0.023711
3031.017578 0.014394
3030.284180 0.013544
3029.549805 0.017774
3028.816406 0.018617
3028.082031 0.021152
3027.347656 0.010151
3026.613281 0.012686
3025.878906 0.021140
3025.144531 0.020291
3024.410156 0.018597
3023.674805 0.016058
3022.939453 0.022815
3022.205078 0.015207
3021.469727 0.022806
3020.734375 0.018580
3019.999023 0.024487
3019.262695 0.024482
3018.527344 0.028698
3017.791016 0.019410
3017.054688 0.024469
3016.318359 0.021934
3015.582031 0.026990
3014.845703 0.025299
3014.109375 0.028667
3013.373047 0.026133
3012.635742 0.022756
3011.898438 0.021910
3011.161133 0.027803
3010.424805 0.023586
3009.686523 0.016844
3008.949219 0.026104
3008.211914 0.018522
3007.473633 0.017677
3006.736328 0.027773
3005.998047 0.022719
3005.259766 0.026080
3004.521484 0.023552
3003.782227 0.032798
3003.043945 0.020180
3002.305664 0.024379
3001.566406 0.030259
3000.827148 0.036976
3000.087891 0.021005
2999.348633 0.023521
2998.609375 0.031076
2997.870117 0.031070
2997.129883 0.017631
2996.389648 0.039453
2995.650391 0.029375
2994.910156 0.022656
2994.169922 0.024330
2993.429688 0.022648
2992.688477 0.028514
2991.948242 0.036894
2991.207031 0.031857
2990.465820 0.030175
2989.725586 0.029331
2988.983398 0.032677
2988.242188 0.039373
2987.500977 0.032665
2986.759766 0.032659
2986.017578 0.037677
2985.275391 0.030136
2984.533203 0.032641
2983.791016 0.042676
2983.048828 0.037649
2982.306641 0.032623
2981.563477 0.045162
2980.821289 0.048498
2980.078125 0.039293
2979.334961 0.035942
2978.591797 0.041785
2977.848633 0.045120
2977.105469 0.056807
2976.361328 0.050114
2975.618164 0.051775
2974.874023 0.046756
2974.129883 0.050921
2973.385742 0.052581
2972.641602 0.053405
2971.897461 0.050892
2971.152344 0.063395
2970.408203 0.065885
2969.663086 0.072544
2968.917969 0.065027
2968.172852 0.074183
2967.427734 0.067503
2966.682617 0.079155
2965.936523 0.074142
2965.191406 0.082457
2964.445313 0.085772
2963.699219 0.099910
2962.953125 0.094065
2962.207031 0.084892
2961.460938 0.095693
2960.713867 0.100667
2959.967773 0.104807
2959.220703 0.101461
2958.473633 0.103105
2957.726563 0.103917
2956.979492 0.099742
2956.232422 0.114681
2955.484375 0.113829
2954.737305 0.133744
2953.989258 0.121261
2953.241211 0.126220
2952.493164 0.132839
2951.745117 0.151075
2950.997070 0.141918
2950.248047 0.138572
2949.500000 0.138546
2948.750977 0.145155
2948.001953 0.138493
2947.252930 0.138467
2946.503906 0.131809
2945.754883 0.135928
2945.004883 0.137560
2944.255859 0.136706
2943.505859 0.146620
2942.755859 0.132513
2942.005859 0.153189
2941.255859 0.128323
2940.504883 0.134921
2939.754883 0.129102
2939.003906 0.137352
2938.252930 0.119126
2937.502930 0.131510
2936.750977 0.130658
2936.000000 0.132287
2935.249023 0.109116
2934.497070 0.107443
2933.746094 0.102464
2932.994141 0.101619
2932.242188 0.099121
2931.490234 0.108187
2930.738281 0.113120
2929.985352 0.105669
2929.233398 0.090792
2928.480469 0.099027
2927.727539 0.080032
2926.974609 0.098989
2926.221680 0.084950
2925.468750 0.083284
2924.715820 0.076673
2923.961914 0.079131
2923.208008 0.066754
2922.455078 0.079101
2921.701172 0.067553
2920.946289 0.077423
2920.192383 0.074115
2919.438477 0.060927
2918.683594 0.068324
2917.928711 0.069134
2917.173828 0.070767
2916.418945 0.049363
2915.664063 0.069917
2914.909180 0.058390
2914.153320 0.060023
2913.398438 0.052613
2912.642578 0.061644
2911.886719 0.064098
2911.130859 0.057513
2910.375000 0.070645
2909.619141 0.054205
2908.862305 0.064049
2908.105469 0.067320
2907.349609 0.058278
2906.592773 0.061550
2905.835938 0.053333
2905.078125 0.063987
2904.321289 0.052492
2903.563477 0.064783
2902.806641 0.056572
2902.048828 0.057380
2901.291016 0.065565
2900.533203 0.060636
2899.774414 0.049974
2899.016602 0.059794
2898.257813 0.063058
2897.500000 0.057314
2896.741211 0.052391
2895.982422 0.067114
2895.222656 0.062191
2894.463867 0.054816
2893.705078 0.061349
2892.945313 0.046616
2892.185547 0.057237
2891.425781 0.054773
2890.666016 0.056398
2889.906250 0.053935
2889.146484 0.054742
2888.385742 0.043295
2887.625000 0.042470
2886.864258 0.057160
2886.103516 0.051434
2885.342773 0.036731
2884.582031 0.047333
2883.821289 0.048956
2883.059570 0.048947
2882.297852 0.040781
2881.536133 0.044850
2880.774414 0.052995
2880.012695 0.044018
2879.250977 0.053789
2878.488281 0.044816
2877.726563 0.050510
2876.963867 0.050500
2876.201172 0.050490
2875.438477 0.042338
2874.674805 0.052099
2873.912109 0.050461
2873.149414 0.048823
2872.385742 0.042305
2871.622070 0.041484
2870.858398 0.050422
2870.094727 0.050412
2869.330078 0.031704
2868.566406 0.046328
2867.801758 0.039818
2867.038086 0.043060
2866.273438 0.040615
2865.508789 0.050353
2864.743164 0.038975
2863.978516 0.047086
2863.212891 0.046265
2862.448242 0.036518
2861.682617 0.043813
2860.916992 0.041371
2860.151367 0.043796
2859.384766 0.036490
2858.619141 0.038104
2857.852539 0.050255
2857.086914 0.051056
2856.320313 0.034841
2855.553711 0.044555
2854.786133 0.034017
2854.019531 0.048586
2853.251953 0.046958
2852.485352 0.039663
2851.717773 0.041274
2850.950195 0.052594
2850.182617 0.045303
2849.414063 0.039632
2848.646484 0.035581
2847.877930 0.039617
2847.110352 0.037992
2846.341797 0.042026
2845.573242 0.034745
2844.803711 0.042009
2844.035156 0.041193
2843.266602 0.031495
2842.497070 0.043599
2841.727539 0.036326
2840.958008 0.046811
2840.188477 0.036312
2839.418945 0.036304
2838.648438 0.045977
2837.878906 0.042742
2837.108398 0.041121
2836.337891 0.039500
2835.567383 0.041911
2834.795898 0.026592
2834.025391 0.040283
2833.254883 0.041886
2832.483398 0.031408
2831.711914 0.039454
2830.940430 0.035421
2830.168945 0.041048
2829.397461 0.037821
2828.625000 0.039423
2827.852539 0.039415
2827.081055 0.038603
2826.308594 0.044224
2825.536133 0.031353
2824.762695 0.031346
2823.990234 0.040180
2823.216797 0.037762
2822.444336 0.049803
2821.670898 0.040959
2820.897461 0.040148
2820.123047 0.031309
2819.349609 0.040935
2818.576172 0.037717
2817.801758 0.040919
2817.027344 0.044119
2816.252930 0.038496
2815.478516 0.031272
2814.704102 0.028861
2813.928711 0.030458
2813.154297 0.043274
2812.378906 0.042464
2811.603516 0.045660
2810.828125 0.031235
2810.052734 0.035233
2809.276367 0.043231
2808.500977 0.037620
2807.724609 0.041614
2806.948242 0.041605
2806.171875 0.040797
2805.395508 0.031192
2804.619141 0.028787
2803.841797 0.031179
2803.064453 0.043962
2802.288086 0.031167
2801.510742 0.030362
2800.733398 0.036746
2799.955078 0.035940
2799.177734 0.035933
2798.399414 0.035128
2797.621094 0.030332
2796.842773 0.035912
2796.064453 0.031117
2795.286133 0.036695
2794.507813 0.031105
2793.728516 0.041465
2792.950195 0.034282
2792.170898 0.043043
2791.391602 0.041440
2790.611328 0.040635
2789.832031 0.036644
2789.052734 0.038230
2788.272461 0.039018
2787.492188 0.034234
2786.711914 0.043779
2785.931641 0.027854
2785.151367 0.041374
2784.370117 0.036593
2783.588867 0.034995
2782.808594 0.038169
2782.027344 0.042931
2781.246094 0.038153
2780.463867 0.033378
2779.682617 0.042905
2778.900391 0.040514
2778.119141 0.041300
2777.336914 0.043674
2776.554688 0.033344
2775.771484 0.034925
2774.989258 0.030950
2774.206055 0.040465
2773.423828 0.035697
2772.640625 0.042828
2771.857422 0.035683
2771.074219 0.042018
2770.290039 0.039632
2769.506836 0.042001
2768.722656 0.034862
2767.938477 0.030894
2767.154297 0.040392
2766.370117 0.042759
2765.585938 0.030876
2764.800781 0.039576
2764.016602 0.041151
2763.231445 0.036395
2762.446289 0.038761
2761.661133 0.041126
2760.875000 0.040327
2760.089844 0.032413
2759.303711 0.045844
2758.518555 0.038722
2757.732422 0.033974
2756.945313 0.037127
2756.159180 0.033170
2755.373047 0.041060
2754.585938 0.033157
2753.798828 0.044990
2753.012695 0.033933
2752.224609 0.038660
2751.437500 0.049695
2750.650391 0.039433
2749.862305 0.037059
2749.074219 0.037052
2748.287109 0.044138
2747.499023 0.042553
2746.709961 0.051999
2745.921875 0.049625
2745.132813 0.033077
2744.344727 0.039369
2743.555664 0.042510
2742.766602 0.041714
2741.977539 0.035411
2741.187500 0.036190
2740.398438 0.037756
2739.608398 0.041680
2738.818359 0.044031
2738.028320 0.043236
2737.238281 0.036153
2736.448242 0.047147
2735.657227 0.036139
2734.866211 0.040844
2734.075195 0.040836
2733.284180 0.041613
2732.493164 0.040819
2731.702148 0.045520
2730.910156 0.042372
2730.119141 0.046286
2729.327148 0.040002
2728.535156 0.044699
2727.743164 0.043906
2726.950195 0.043897
2726.158203 0.029781
2725.365234 0.042312
2724.572266 0.041520
2723.779297 0.040728
2722.986328 0.040720
2722.193359 0.032882
2721.399414 0.041486
2720.606445 0.043825
2719.812500 0.039122
2719.018555 0.036767
2718.224609 0.035977
2717.430664 0.030496
2716.635742 0.035962
2715.840820 0.039082
2715.046875 0.038292
2714.251953 0.036722
2713.456055 0.038276
2712.661133 0.038269
2711.866211 0.042165
2711.070313 0.042156
2710.274414 0.035904
2709.478516 0.042919
2708.682617 0.036669
2707.886719 0.035101
2707.089844 0.042893
2706.293945 0.043664
2705.497070 0.045214
2704.700195 0.041308
2703.903320 0.047533
2703.105469 0.043628
2702.308594 0.042840
2701.510742 0.040495
2700.712891 0.049051
2699.915039 0.037365
2699.117188 0.041248
2698.319336 0.042018
2697.520508 0.045899
2696.722656 0.039667
2695.923828 0.047435
2695.125000 0.038096
2694.326172 0.042752
2693.526367 0.041966
2692.727539 0.055166
2691.927734 0.038065
2691.127930 0.038057
2690.328125 0.050473
2689.528320 0.044252
2688.728516 0.045795
2687.927734 0.051218
2687.126953 0.041897
2686.326172 0.042664
2685.525391 0.047308
2684.724609 0.040320
2683.923828 0.049614
2683.122070 0.041853
2682.321289 0.046494
2681.519531 0.041061
2680.717773 0.041827
2679.915039 0.050337
2679.113281 0.039487
2678.310547 0.037931
2677.508789 0.051080
2676.706055 0.041010
2675.903320 0.038681
2675.099609 0.042540
2674.296875 0.041758
2673.493164 0.038657
2672.690430 0.049470
2671.886719 0.038641
2671.083008 0.050223
2670.278320 0.040942
2669.474609 0.041706
2668.669922 0.043242
2667.865234 0.052497
2667.060547 0.048627
2666.255859 0.041671
2665.451172 0.047063
2664.646484 0.045511
2663.840820 0.039332
2663.035156 0.042408
2662.229492 0.053191
2661.423828 0.046243
2660.618164 0.047775
2659.811523 0.045454
2659.004883 0.046214
2658.199219 0.046205
2657.391602 0.038496
2656.584961 0.047725
2655.778320 0.050793
2655.033203 0.043954
2654.970703 0.046166
2654.227539 0.050894
2654.164063 0.048464
2653.421875 0.041634
2653.356445 0.036917
2652.616211 0.047023
2652.548828 0.047675
2651.810547 0.044704
2651.740234 0.050740
2651.004883 0.041614
2650.932617 0.043043
2650.198242 0.045460
2650.124023 0.050719
2649.392578 0.050075
2649.316406 0.043793
2648.585938 0.042364
2648.507813 0.057611
2647.779297 0.045438
2647.699219 0.046847
2646.972656 0.041580
2646.889648 0.048373
2646.166016 0.051582
2646.081055 0.043757
2645.359375 0.055422
2645.271484 0.050655
2644.552734 0.056183
2644.461914 0.052179
2643.745117 0.048479
2643.652344 0.058305
2642.938477 0.047701
2642.842773 0.048322
2642.130859 0.046155
2642.033203 0.051379
2641.323242 0.048455
2641.222656 0.042935
2640.515625 0.051523
2640.413086 0.048291
2639.708008 0.046901
2639.602539 0.049048
2638.899414 0.041512
2638.791992 0.042141
2638.091797 0.047654
2637.981445 0.047495
2637.283203 0.056100
2637.169922 0.040592
2636.475586 0.046870
2636.359375 0.047475
2635.666992 0.049936
2635.547852 0.048230
2634.858398 0.048391
2634.736328 0.053578
2634.049805 0.056063
2633.924805 0.044384
2633.241211 0.049911
2633.113281 0.048200
2632.431641 0.052206
2632.300781 0.051249
2631.623047 0.048359
2631.489258 0.044356
2630.813477 0.042979
2630.676758 0.050463
2630.003906 0.046041
2629.864258 0.059625
2629.194336 0.046801
2629.051758 0.041270
2628.384766 0.058300
2628.238281 0.057308
2627.575195 0.042184
2627.425781 0.044309
2626.765625 0.049078
2626.612305 0.051173
2625.955078 0.059804
2625.798828 0.041235
2625.145508 0.047529
2624.985352 0.042753
2624.334961 0.048287
2624.171875 0.048087
2623.524414 0.054410
2623.358398 0.047314
2622.713867 0.048271
2622.543945 0.041963
2621.903320 0.057456
2621.729492 0.066364
2621.092773 0.044425
2620.916016 0.043471
2620.281250 0.055139
2620.100586 0.055661
2619.469727 0.049005
2619.286133 0.053362
2618.659180 0.056652
2618.471680 0.052589
2617.847656 0.055112
2617.656250 0.056388
2617.036133 0.058929
2616.840820 0.055614
2616.224609 0.058154
2616.025391 0.050270
2615.412109 0.051259
2615.209961 0.055590
2614.600586 0.037481
2614.394531 0.056340
2613.788086 0.059654
2613.578125 0.043387
2612.976563 0.055821
2612.762695 0.051749
2612.164063 0.045108
2611.946289 0.057064
2611.351563 0.040514
2611.129883 0.049445
2610.539063 0.042800
2610.312500 0.051716
2609.726563 0.049670
2609.496094 0.038019
2608.913086 0.058830
2608.678711 0.050174
2608.100586 0.045070
2607.862305 0.049403
2607.287109 0.056519
2607.044922 0.044833
2606.473633 0.054218
2606.227539 0.052421
2605.660156 0.048101
2605.409180 0.045573
2604.846680 0.044276
2604.591797 0.050879
2604.033203 0.055717
2603.773438 0.047832
2603.218750 0.054181
2602.955078 0.051617
2602.405273 0.046542
2602.136719 0.054641
2601.590820 0.038906
2601.318359 0.054629
2600.776367 0.063306
2600.500000 0.049308
2599.961914 0.044993
2599.680664 0.058398
2599.147461 0.061760
2598.861328 0.048528
2598.333008 0.046503
2598.042969 0.053824
2597.518555 0.051830
2597.222656 0.044718
2596.703125 0.056394
2596.403320 0.049255
2595.888672 0.054098
2595.583984 0.048487
2595.073242 0.059422
2594.763672 0.048476
2594.257813 0.052556
2593.943359 0.056038
2593.442383 0.047978
2593.123047 0.052241
2592.625977 0.052538
2592.302734 0.049959
2591.810547 0.047961
2591.482422 0.055245
2590.994141 0.050237
2590.661133 0.048424
2590.178711 0.054794
2589.839844 0.053709
2589.362305 0.050219
2589.018555 0.053697
2588.545898 0.051732
2588.197266 0.056710
2587.729492 0.048681
2587.375977 0.049138
2586.913086 0.051714
2586.554688 0.057441
2586.095703 0.054747
2585.732422 0.049872
2585.279297 0.058539
2584.910156 0.055150
2584.461914 0.050167
2584.087891 0.053627
2583.644531 0.058518
2583.265625 0.056636
2582.827148 0.059268
2582.443359 0.047564
2582.009766 0.057739
2581.620117 0.046799
2581.192383 0.050892
2580.796875 0.046789
2580.374023 0.052402
2579.973633 0.053569
2579.556641 0.045559
2579.150391 0.039980
2578.738281 0.051625
2578.327148 0.052792
2577.919922 0.042507
2577.503906 0.049010
2577.101563 0.053884
2576.679688 0.048246
2576.283203 0.062980
2575.855469 0.048235
2575.464844 0.049313
2575.031250 0.053499
2574.645508 0.059165
2574.207031 0.054994
2573.827148 0.043229
2573.381836 0.053476
2573.007813 0.056112
2572.557617 0.060995
2572.188477 0.050795
2571.732422 0.048183
2571.369141 0.044722
2570.907227 0.053441
2570.549805 0.064419
2570.082031 0.050419
2569.730469 0.055315
2569.256836 0.054923
2568.910156 0.061366
2568.430664 0.052654
2568.090820 0.043933
2567.605469 0.050386
2567.270508 0.058315
2566.779297 0.059398
2566.450195 0.049975
2565.953125 0.052619
2565.629883 0.056023
2565.125977 0.054863
2564.809570 0.052986
2564.299805 0.049591
2563.989258 0.055247
2563.472656 0.054839
2563.167969 0.061290
2562.646484 0.057831
2562.346680 0.046905
2561.819336 0.058569
2561.526367 0.052192
2560.992188 0.053301
2560.705078 0.053695
2560.164063 0.047285
2559.883789 0.049149
2559.336914 0.063033
2559.061523 0.057456
2558.508789 0.055517
2558.240234 0.049887
2557.680664 0.052504
2557.417969 0.052902
2556.852539 0.054742
2556.596680 0.052892
2556.024414 0.050232
2555.774414 0.043062
2555.195313 0.061464
2554.952148 0.057406
2554.367188 0.052458
2554.129883 0.055885
2553.538086 0.050948
2553.307617 0.058895
2552.708984 0.056180
2552.484375 0.058885
2551.878906 0.053172
2551.662109 0.061894
2551.049805 0.059899
2550.838867 0.053581
2550.219727 0.059137
2550.015625 0.055081
2549.390625 0.045653
2549.192383 0.056580
2548.560547 0.059860
2548.369141 0.062604
2547.730469 0.051617
2547.544922 0.052789
2546.899414 0.065816
2546.721680 0.059566
2546.069336 0.055333
2545.897461 0.062570
2545.238281 0.046350
2545.074219 0.060298
2544.407227 0.059046
2544.250000 0.053505
2543.576172 0.053802
2543.425781 0.054249
2542.745117 0.056032
2542.600586 0.048213
2541.913086 0.046309
2541.776367 0.064774
2541.082031 0.064968
2540.951172 0.055726
2540.250000 0.051515
2540.126953 0.057975
2539.417969 0.068671
2539.301758 0.056459
2538.585938 0.046268
2538.476563 0.064728
2537.752930 0.056703
2537.651367 0.056439
2536.920898 0.055199
2536.826172 0.057933
2536.087891 0.055932
2536.000000 0.053409
2535.254883 0.050700
2535.174805 0.052648
2534.421875 0.060380
2534.348633 0.057150
2533.587891 0.052168
2533.522461 0.058643
2532.754883 0.056627
2532.696289 0.054123
2531.920898 0.055125
2531.870117 0.058622
2531.086914 0.058092
2531.042969 0.053352
2530.252930 0.062546
2530.216797 0.063860
2529.418945 0.058066
2529.389648 0.062346
2528.583984 0.052843
2528.562500 0.054074
2527.749023 0.057296
2527.735352 0.057068
2526.914063 0.066954
2526.908203 0.051802
2526.081055 0.060245
2526.079102 0.061551
2525.253906 0.062462
2525.244141 0.066793
2524.425781 0.060962
2524.409180 0.064530
2523.597656 0.056488
2523.573242 0.060767
2522.769531 0.067507
2522.737305 0.060191
2521.941406 0.063745
2521.901367 0.060921
2521.113281 0.057735
2521.065430 0.051251
2520.285156 0.058474
2520.228516 0.062378
2519.456055 0.060712
2519.392578 0.052713
2518.627930 0.060701
2518.555664 0.062350
2517.798828 0.068932
2517.718750 0.047494
2516.969727 0.062177
2516.881836 0.066774
2516.140625 0.058421
2516.043945 0.061566
2515.311523 0.056913
2515.207031 0.061553
2514.481445 0.059897
2514.369141 0.066729
2513.651367 0.057640
2513.531250 0.063749
2512.822266 0.054636
2512.693359 0.054841
2511.992188 0.062858
2511.855469 0.070388
2511.162109 0.062846
2511.016602 0.062224
2510.332031 0.060590
2510.177734 0.059988
2509.500977 0.058336
2509.338867 0.066638
2508.670898 0.064307
2508.500000 0.070325
2507.839844 0.069529
2507.661133 0.066608
2507.008789 0.058304
2506.821289 0.065853
2506.177734 0.065767
2505.982422 0.061400
2505.346680 0.072479
2505.142578 0.069521
2504.515625 0.068731
2504.302734 0.068027
2503.683594 0.059755
2503.461914 0.058401
2502.852539 0.062731
2502.622070 0.067996
2502.020508 0.066453
2501.781250 0.061330
2501.188477 0.059722
2500.940430 0.063532
2500.356445 0.072400
2500.099609 0.063518
2499.524414 0.063431
2499.258789 0.061288
2498.691406 0.072373
2498.416992 0.073086
2497.859375 0.063408
2497.576172 0.056094
2497.026367 0.070109
2496.734375 0.067888
2496.193359 0.060402
2495.892578 0.065659
2495.360352 0.067846
2495.050781 0.068594
2494.527344 0.065597
2494.208008 0.061942
2493.694336 0.073784
2493.365234 0.066351
2492.860352 0.058867
2492.523438 0.064125
2492.027344 0.070776
2491.680664 0.075900
2491.193359 0.066294
2490.836914 0.060412
2490.359375 0.064047
2489.994141 0.073656
2489.525391 0.072971
2489.150391 0.067012
2488.691406 0.068491
2488.306641 0.072150
2487.856445 0.075177
2487.462891 0.068453
2487.022461 0.076651
2486.619141 0.063286
2486.187500 0.076637
2485.775391 0.066950
2485.352539 0.075879
2484.930664 0.075761
2484.517578 0.071402
2484.085938 0.063978
2483.682617 0.065440
2483.241211 0.068374
2482.846680 0.065428
2482.396484 0.067624
2482.011719 0.078796
2481.550781 0.056585
2481.175781 0.071349
2480.706055 0.060980
2480.339844 0.058704
2479.860352 0.080064
2479.503906 0.068351
2479.014648 0.059483
2478.667969 0.062396
2478.168945 0.066811
2477.832031 0.065355
2477.322266 0.074136
2476.995117 0.071283
2476.476563 0.066047
2476.158203 0.068300
2475.629883 0.065298
2475.322266 0.068287
2474.783203 0.078486
2474.485352 0.068275
2473.936523 0.071868
2473.647461 0.068262
2473.088867 0.073317
2472.810547 0.068249
2472.242188 0.064504
2471.973633 0.076395
2471.394531 0.065955
2471.135742 0.067482
2470.546875 0.065940
2470.297852 0.056348
2469.698242 0.073249
2469.459961 0.062268
2468.850586 0.074697
2468.622070 0.069668
2468.001953 0.073215
2467.784180 0.072619
2467.153320 0.068074
2466.946289 0.075568
2466.304688 0.066595
2466.107422 0.066666
2465.456055 0.067311
2465.268555 0.069615
2464.607422 0.061443
2464.429688 0.071083
2463.757813 0.065817
2463.590820 0.073291
2462.908203 0.071651
2462.751953 0.062175
2462.058594 0.069441
2461.913086 0.051802
2461.208984 0.064309
2461.073242 0.072510
2460.358398 0.067217
2460.233398 0.065099
2459.508789 0.070853
2459.394531 0.070264
2458.658203 0.062073
2458.554688 0.069511
2457.807617 0.072280
2457.713867 0.069498
2456.956055 0.073723
2456.874023 0.074659
2456.105469 0.069327
2456.033203 0.075384
2455.253906 0.068581
2455.193359 0.059114
2454.402344 0.068565
2454.352539 0.062796
2453.550781 0.061257
2453.511719 0.070910
2452.699219 0.072178
2452.670898 0.063511
2451.846680 0.065601
2451.829102 0.071621
2450.995117 0.071416
2450.988281 0.068655
2450.146484 0.061928
2450.142578 0.061999
2449.304688 0.065555
2449.290039 0.073057
2448.462891 0.065540
2448.436523 0.057549
2447.621094 0.070816
2447.583984 0.065524
2446.779297 0.075965
2446.730469 0.064781
2445.937500 0.070789
2445.876953 0.065493
2445.094727 0.055294
2445.023438 0.061840
2444.251953 0.075922
2444.169922 0.065462
2443.409180 0.064116
2443.315430 0.063992
2442.566406 0.069999
2442.460938 0.060342
2441.723633 0.053778
2441.606445 0.066142
2440.879883 0.063343
2440.751953 0.059587
2440.037109 0.069222
2439.897461 0.064658
2439.193359 0.069209
2439.041992 0.062464
2438.349609 0.061099
2438.186523 0.050104
2437.505859 0.061823
2437.331055 0.063160
2436.662109 0.064755
2436.475586 0.068226
2435.817383 0.073571
2435.619141 0.055874
2434.973633 0.063995
2434.763672 0.059488
2434.128906 0.063247
2433.907227 0.073979
2433.284180 0.072794
2433.050781 0.055109
2432.439453 0.069839
2432.194336 0.060170
2431.593750 0.056596
2431.336914 0.061605
2430.749023 0.063199
2430.479492 0.056518
2429.903320 0.060248
2429.622070 0.068095
2429.058594 0.063909
2428.764648 0.059388
2428.212891 0.064632
2427.907227 0.060098
2427.367188 0.062416
2427.048828 0.057188
2426.520508 0.066809
2426.191406 0.061517
2425.674805 0.056520
2425.333008 0.065843
2424.828125 0.068986
2424.473633 0.055700
2423.982422 0.071174
2423.615234 0.060749
2423.135742 0.065291
2422.755859 0.062904
2422.289063 0.060144
2421.897461 0.052768
2421.441406 0.056466
2421.038086 0.052756
2420.594727 0.054989
2420.177734 0.064303
2419.747070 0.064508
2419.318359 0.050563
2418.900391 0.064496
2418.458008 0.066439
2418.052734 0.063018
2417.597656 0.059203
2417.205078 0.058610
2416.737305 0.063519
2416.356445 0.061529
2415.876953 0.069277
2415.508789 0.061517
2415.015625 0.063488
2414.660156 0.064434
2414.155273 0.056982
2413.812500 0.060761
2413.293945 0.062015
2412.963867 0.061481
2412.115234 0.063665
2411.266602 0.061458
2410.416992 0.061446
2409.568359 0.057777
2408.718750 0.062885
2407.869141 0.067990
2407.019531 0.062861
2406.169922 0.063579
2405.319336 0.067951
2404.469727 0.068668
2403.619141 0.067194
2402.768555 0.065721
2401.917969 0.062788
2401.066406 0.067155
2400.215820 0.067143
2399.364258 0.073697
2398.513672 0.058362
2397.662109 0.062727
2396.810547 0.059798
2395.958008 0.061245
2395.106445 0.064878
2394.253906 0.066323
2393.402344 0.060481
2392.549805 0.071397
2391.697266 0.068470
2390.843750 0.063358
2389.991211 0.070627
2389.137695 0.064790
2388.284180 0.061866
2387.430664 0.061126
2386.577148 0.065480
2385.723633 0.072741
2384.869141 0.054545
2384.015625 0.066896
2383.161133 0.060340
2382.306641 0.058148
2381.452148 0.066857
2380.597656 0.065391
2379.742188 0.054482
2378.886719 0.060281
2378.032227 0.074792
2377.176758 0.058080
2376.320313 0.056617
2375.464844 0.063137
2374.609375 0.066753
2373.752930 0.064563
2372.896484 0.060924
2372.040039 0.068164
2371.183594 0.065250
2370.326172 0.065963
2369.469727 0.059427
2368.612305 0.064488
2367.754883 0.067373
2366.897461 0.065911
2366.040039 0.063726
2365.182617 0.069505
2364.324219 0.072387
2363.465820 0.066583
2362.607422 0.073082
2361.749023 0.069451
2360.890625 0.066544
2360.031250 0.063638
2359.172852 0.067964
2358.313477 0.063613
2357.454102 0.060710
2356.594727 0.071537
2355.735352 0.067188
2354.875000 0.058507
2354.015625 0.070773
2353.155273 0.070037
2352.294922 0.061360
2351.434570 0.072896
2350.573242 0.069274
2349.712891 0.064210
2348.851563 0.073574
2347.990234 0.071396
2347.128906 0.070661
2346.267578 0.073531
2345.406250 0.066309
2344.543945 0.067737
2343.681641 0.078531
2342.819336 0.061948
2341.957031 0.066977
2341.094727 0.070564
2340.232422 0.074149
2339.369141 0.078453
2338.505859 0.064045
2337.642578 0.083458
2336.779297 0.069055
2335.916016 0.069042
2335.051758 0.066152
2334.188477 0.069014
2333.324219 0.071876
2332.459961 0.060364
2331.595703 0.074003
2330.730469 0.084763
2329.866211 0.081155
2329.000977 0.078267
2328.135742 0.065329
2327.270508 0.073212
2326.405273 0.076068
2325.540039 0.073183
2324.673828 0.079624
2323.807617 0.081760
2322.941406 0.077441
2322.075195 0.073842
2321.208984 0.073110
2320.341797 0.073812
2319.475586 0.073797
2318.608398 0.068052
2317.741211 0.077349
2316.874023 0.073753
2316.005859 0.077318
2315.138672 0.076587
2314.270508 0.080150
2313.402344 0.072264
2312.534180 0.077972
2311.666016 0.067944
2310.797852 0.076511
2309.928711 0.065772
2309.059570 0.070047
2308.190430 0.073607
2307.321289 0.077164
2306.452148 0.067863
2305.582031 0.062850
2304.712891 0.072834
2303.842773 0.075675
2302.972656 0.083511
2302.102539 0.071363
2301.231445 0.079197
2300.361328 0.067054
2299.490234 0.077739
2298.619141 0.076297
2297.748047 0.067014
2296.876953 0.073416
2296.004883 0.072688
2295.133789 0.076949
2294.261719 0.073371
2293.389648 0.077630
2292.517578 0.069782
2291.645508 0.072615
2290.772461 0.070466
2289.899414 0.073298
2289.027344 0.073283
2288.153320 0.063310
2287.280273 0.073254
2286.407227 0.076794
2285.533203 0.076068
2284.660156 0.073210
2283.786133 0.073195
2282.911133 0.080996
2282.037109 0.063221
2281.163086 0.064628
2280.288086 0.080237
2279.413086 0.082350
2278.538086 0.075946
2277.663086 0.073092
2276.787109 0.075206
2275.912109 0.076609
2275.036133 0.079431
2274.160156 0.082251
2273.284180 0.079399
2272.408203 0.078674
2271.531250 0.085036
2270.655273 0.077934
2269.778320 0.072959
2268.901367 0.072945
2268.024414 0.087799
2267.146484 0.079286
2266.269531 0.071485
2265.391602 0.079962
2264.513672 0.072871
2263.635742 0.082052
2262.757813 0.072842
2261.878906 0.072827
2261.000000 0.087657
2260.122070 0.075624
2259.243164 0.081969
2258.363281 0.072768
2257.484375 0.078404
2256.604492 0.070620
2255.725586 0.076960
2254.845703 0.072003
2253.965820 0.084692
2253.084961 0.086792
2252.205078 0.079719
2251.324219 0.084641
2250.443359 0.076161
2249.562500 0.071915
2248.681641 0.082474
2247.800781 0.067658
2246.918945 0.082441
2246.037109 0.079606
2245.155273 0.082407
2244.273438 0.084503
2243.391602 0.082374
2242.509766 0.078838
2241.626953 0.087970
2240.744141 0.076695
2239.861328 0.082307
2238.978516 0.080883
2238.094727 0.076648
2237.211914 0.078741
2236.328125 0.076617
2235.444336 0.077304
2234.560547 0.089232
2233.675781 0.077975
2232.791992 0.081470
2231.907227 0.088476
2231.022461 0.080033
2230.137695 0.082122
2229.252930 0.084913
2228.368164 0.084895
2227.482422 0.079266
2226.596680 0.092575
2225.710938 0.075728
2224.825195 0.091836
2223.938477 0.072192
2223.052734 0.075681
2222.166016 0.086175
2221.279297 0.091761
2220.392578 0.075635
2219.505859 0.088223
2218.618164 0.075604
2217.731445 0.082587
2216.843750 0.074174
2215.956055 0.076957
2215.068359 0.085335
2214.179688 0.079722
2213.291016 0.081804
2212.403320 0.072000
2211.514648 0.085265
2210.625977 0.093632
2209.736328 0.076148
2208.847656 0.084514
2207.958008 0.074720
2207.068359 0.070515
2206.178711 0.080273
2205.289063 0.083746
2204.398438 0.075356
2203.507813 0.083014
2202.618164 0.082300
2201.727539 0.090650
2200.835938 0.076688
2199.945313 0.079461
2199.053711 0.084323
2198.162109 0.082215
2197.270508 0.083591
2196.378906 0.084270
2195.487305 0.081468
2194.594727 0.086324
2193.703125 0.083522
2192.810547 0.082113
2191.917969 0.086966
2191.024414 0.084862
2190.131836 0.088321
2189.238281 0.075788
2188.344727 0.085504
2187.451172 0.087572
2186.557617 0.088943
2185.664063 0.076420
2184.769531 0.086128
2183.875000 0.096527
2182.980469 0.072901
2182.085938 0.093711
2181.191406 0.081893
2180.295898 0.077019
2179.400391 0.078390
2178.504883 0.080455
2177.609375 0.081825
2176.713867 0.083888
2175.817383 0.080405
2174.921875 0.088011
2174.025391 0.083143
2173.128906 0.076199
2172.231445 0.082416
2171.334961 0.078244
2170.437500 0.085843
2169.540039 0.074751
2168.642578 0.083732
2167.745117 0.081639
2166.847656 0.085772
2165.949219 0.086446
2165.050781 0.083662
2164.152344 0.078114
2163.253906 0.086392
2162.354492 0.083610
2161.456055 0.080138
2160.556641 0.075286
2159.657227 0.088391
2158.757813 0.091825
2157.858398 0.084213
2156.958008 0.087646
2156.057617 0.088318
2155.157227 0.090369
2154.256836 0.088971
2153.356445 0.093089
2152.456055 0.091691
2151.554688 0.085469
2150.653320 0.084072
2149.751953 0.086122
2148.850586 0.084726
2147.948242 0.086086
2147.045898 0.084691
2146.144531 0.081231
2145.242188 0.083967
2144.338867 0.090143
2143.436523 0.091500
2142.533203 0.083227
2141.629883 0.088023
2140.726563 0.086629
2139.823242 0.085924
2138.919922 0.088655
2138.015625 0.091385
2137.111328 0.083809
2136.207031 0.093407
2135.302734 0.074847
2134.398438 0.086502
2133.493164 0.089916
2132.588867 0.081662
2131.683594 0.089878
2130.778320 0.080256
2129.872070 0.086412
2128.966797 0.089822
2128.060547 0.078835
2127.154297 0.094582
2126.248047 0.088395
2125.341797 0.091116
2124.434570 0.097262
2123.527344 0.099980
2122.620117 0.097221
2121.712891 0.091724
2120.805664 0.099233
2119.897461 0.091685
2118.990234 0.090298
2118.082031 0.090279
2117.173828 0.087525
2116.265625 0.090925
2115.356445 0.100474
2114.447266 0.089519
2113.539063 0.095649
2112.628906 0.096995
2111.719727 0.096975
2110.810547 0.101051
2109.900391 0.093521
2108.990234 0.089406
2108.080078 0.091434
2107.169922 0.093461
2106.258789 0.090713
2105.348633 0.102287
2104.437500 0.091357
2103.526367 0.096109
2102.615234 0.088592
2101.703125 0.087211
2100.791992 0.082424
2099.879883 0.093984
2098.967773 0.095326
2098.055664 0.092583
2097.142578 0.091202
2096.230469 0.095946
2095.317383 0.099327
2094.404297 0.091824
2093.490234 0.096565
2092.577148 0.095184
2091.663086 0.086327
2090.750000 0.106017
2089.835938 0.106674
2088.920898 0.099859
2088.006836 0.099837
2087.091797 0.089631
2086.177734 0.099795
2085.262695 0.104525
2084.346680 0.088216
2083.431641 0.101766
2082.515625 0.101066
2081.600586 0.086125
2080.684570 0.105091
2079.767578 0.093545
2078.851563 0.101658
2077.934570 0.105702
2077.017578 0.096195
2076.100586 0.096174
2075.183594 0.090737
2074.266602 0.100195
2073.348633 0.100851
2072.430664 0.083235
2071.512695 0.088629
2070.594727 0.094698
2069.676758 0.100088
2068.757813 0.091953
2067.838867 0.109509
2066.919922 0.091238
2066.000977 0.102705
2065.082031 0.103359
2064.162109 0.101310
2063.242188 0.108041
2062.322266 0.093840
2061.402344 0.103945
2060.481445 0.103248
2059.561523 0.102551
2058.640625 0.099831
2057.719727 0.103181
2056.798828 0.106530
2055.876953 0.109878
2054.956055 0.103114
2054.034180 0.102418
2053.112305 0.095660
2052.189453 0.101701
2051.267578 0.102352
2050.344727 0.108389
2049.421875 0.103654
2048.499023 0.116418
2047.576172 0.096882
2046.652344 0.100897
2045.729492 0.093477
2044.805664 0.108249
2043.881836 0.114275
2042.957031 0.108874
2042.033203 0.111538
2041.108398 0.107484
2040.183594 0.091341
2039.258789 0.114152
2038.333984 0.110771
2037.408203 0.108733
2036.483398 0.107367
2035.557617 0.105331
2034.630859 0.106650
2033.705078 0.105286
2032.778320 0.101240
2031.852539 0.101218
2030.925781 0.108667
2030.818359 0.111919
2029.999023 0.114704
2029.892578 0.113235
2029.071289 0.107307
2028.965820 0.097803
2028.144531 0.108630
2028.040039 0.109837
2027.216797 0.108612
2027.113281 0.104456
2026.289063 0.103231
2026.186523 0.113806
2025.361328 0.111256
2025.260742 0.102403
2024.432617 0.115928
2024.333008 0.110410
2023.503906 0.105188
2023.406250 0.117076
2022.576172 0.104501
2022.479492 0.111700
2021.647461 0.107832
2021.551758 0.113682
2020.717773 0.104465
2020.624023 0.110314
2019.789063 0.109803
2019.696289 0.106948
2018.859375 0.102421
2018.768555 0.101578
2017.929688 0.109097
2017.840820 0.111578
2017.000000 0.110416
2016.913086 0.102870
2016.070313 0.119096
2015.984375 0.110194
2015.139648 0.110379
2015.055664 0.114844
2014.209961 0.111697
2014.126953 0.110813
2013.279297 0.101647
2013.198242 0.113459
2012.348633 0.111659
2012.269531 0.118772
2011.416992 0.107629
2011.340820 0.111408
2010.486328 0.111621
2010.411133 0.103380
2009.554688 0.116279
2009.482422 0.120694
2008.623047 0.105569
2008.552734 0.107335
2007.691406 0.105551
2007.623047 0.118642
2006.759766 0.109540
2006.692383 0.117950
2005.827148 0.106182
2005.762695 0.102600
2004.894531 0.109502
2004.833008 0.118564
2003.961914 0.118829
2003.902344 0.107883
2003.029297 0.108129
2002.971680 0.109191
2002.096680 0.118121
2002.041016 0.109833
2001.163086 0.105423
2001.110352 0.104484
2000.229492 0.123417
2000.178711 0.109119
1999.295898 0.107387
1999.248047 0.095126
1998.362305 0.108702
1998.316406 0.102420
1997.427734 0.110684
1997.384766 0.122345
1996.494141 0.109998
1996.453125 0.110353
1995.559570 0.113311
1995.521484 0.122956
1994.625000 0.115957
1994.589844 0.110968
1993.689453 0.117936
1993.657227 0.110944
1992.754883 0.109255
1992.724609 0.112912
1991.819336 0.111234
1991.792969 0.116872
1990.883789 0.113878
1990.860352 0.123485
1989.948242 0.108532
1989.926758 0.110183
1989.012695 0.107181
1988.994141 0.126085
1988.076172 0.111156
1988.061523 0.114778
1987.139648 0.107144
1987.127930 0.115416
1986.203125 0.114444
1986.194336 0.117380
1985.266602 0.120411
1985.260742 0.116691
1984.330078 0.117064
1984.327148 0.106059
1983.392578 0.114383
1983.392578 0.110675
1982.458984 0.121012
1982.455078 0.113301
1981.524414 0.109690
1981.517578 0.110626
1980.589844 0.127616
1980.580078 0.121198
1979.655273 0.129587
1979.641602 0.109915
1978.720703 0.110960
1978.703125 0.123792
1977.786133 0.123563
1977.765625 0.119794
1976.850586 0.125533
1976.826172 0.127046
1975.915039 0.107581
1975.887695 0.123048
1974.979492 0.110882
1974.948242 0.128974
1974.043945 0.106215
1974.009766 0.104479
1973.108398 0.116816
1973.070313 0.120322
1972.172852 0.120113
1972.130859 0.108398
1971.236328 0.122082
1971.190430 0.132163
1970.299805 0.120071
1970.250000 0.126849
1969.363281 0.114743
1969.310547 0.120215
1968.426758 0.116049
1968.370117 0.123490
1967.490234 0.110724
1967.428711 0.109598
1966.553711 0.110041
1966.488281 0.114854
1965.616211 0.115324
1965.546875 0.122088
1964.678711 0.119942
1964.605469 0.119421
1963.741211 0.117270
1963.664063 0.115437
1962.803711 0.120561
1962.722656 0.129261
1961.866211 0.108618
1961.780273 0.125276
1960.928711 0.109261
1960.837891 0.121293
1959.990234 0.125131
1959.895508 0.127197
1959.051758 0.121137
1958.953125 0.114649
1958.113281 0.124424
1958.010742 0.116600
1957.174805 0.131681
1957.067383 0.127112
1956.236328 0.127688
1956.124023 0.123791
1955.296875 0.119727
1955.180664 0.116522
1954.357422 0.131610
1954.237305 0.130975
1953.418945 0.122990
1953.292969 0.128972
1952.479492 0.128257
1952.349609 0.122364
1951.539063 0.129556
1951.405273 0.124310
1950.599609 0.113010
1950.460938 0.129543
1949.660156 0.126205
1949.515625 0.125569
1948.719727 0.130807
1948.571289 0.120940
1947.779297 0.129462
1947.625977 0.115656
1946.838867 0.124155
1946.680664 0.122200
1945.898438 0.141960
1945.735352 0.112319
1944.957031 0.126751
1944.789063 0.109667
1944.016602 0.116827
1943.842773 0.118834
1943.075195 0.130004
1942.896484 0.117495
1942.133789 0.123383
1941.950195 0.118781
1941.192383 0.136554
1941.003906 0.125971
1940.250977 0.115423
1940.056641 0.135126
1939.308594 0.129250
1939.110352 0.128538
1938.366211 0.124611
1938.163086 0.122608
1937.424805 0.137114
1937.215820 0.123891
1936.482422 0.133793
1936.267578 0.136315
1935.539063 0.133110
1935.319336 0.129732
1934.596680 0.131768
1934.372070 0.131668
1933.654297 0.119228
1933.422852 0.132293
1932.710938 0.128427
1932.474609 0.137501
1931.767578 0.132354
1931.526367 0.130924
1930.824219 0.133646
1930.577148 0.134821
1929.880859 0.125065
1929.627930 0.122359
1928.936523 0.130307
1928.678711 0.129527
1927.993164 0.130941
1927.728516 0.134730
1927.048828 0.123022
1926.779297 0.123583
1926.104492 0.140101
1925.829102 0.127477
1925.160156 0.128896
1924.878906 0.137252
1924.215820 0.130845
1923.928711 0.126766
1923.270508 0.138052
1922.977539 0.133923
1922.326172 0.132111
1922.026367 0.133893
1921.380859 0.139315
1921.075195 0.141698
1920.435547 0.137975
1920.124023 0.133179
1919.490234 0.122841
1919.172852 0.138371
1918.543945 0.135297
1918.220703 0.126593
1917.598633 0.130676
1917.268555 0.117431
1916.652344 0.131965
1916.316406 0.134363
1915.706055 0.135222
1915.364258 0.122594
1914.759766 0.132572
1914.411133 0.129086
1913.813477 0.147639
1913.458984 0.132315
1912.866211 0.141052
1912.505859 0.134892
1911.919922 0.131842
1911.552734 0.134861
1910.972656 0.142967
1910.598633 0.130270
1910.025391 0.139662
1909.645508 0.130241
1909.078125 0.134391
1908.691406 0.124351
1908.129883 0.140265
1907.737305 0.134737
1907.182617 0.136307
1906.782227 0.134056
1906.234375 0.135626
1905.828125 0.135977
1905.286133 0.123155
1904.873047 0.130742
1904.337891 0.119202
1903.917969 0.126160
1903.389648 0.137515
1902.962891 0.137184
1902.440430 0.141418
1902.006836 0.126102
1901.492188 0.126336
1901.051758 0.143619
1900.542969 0.140710
1900.095703 0.133191
1899.593750 0.137412
1899.139648 0.140306
1898.644531 0.141312
1898.183594 0.127285
1897.695313 0.133436
1897.226563 0.137644
1896.745117 0.142567
1896.269531 0.136314
1895.794922 0.130771
1895.312500 0.136283
1894.844727 0.135976
1894.355469 0.144686
1893.894531 0.141833
1893.398438 0.139463
1892.944336 0.125470
1892.440430 0.132946
1891.994141 0.143740
1891.482422 0.132915
1891.042969 0.143060
1890.524414 0.135477
1890.091797 0.143686
1889.566406 0.130261
1889.140625 0.146924
1888.607422 0.132823
1888.189453 0.127963
1887.648438 0.121780
1887.238281 0.131203
1886.689453 0.134057
1886.286133 0.142925
1885.730469 0.123666
1885.334961 0.127238
1884.770508 0.136584
1884.382813 0.136348
1883.811523 0.138494
1883.430664 0.134365
1882.851563 0.137168
1882.477539 0.137600
1881.891602 0.141664
1881.525391 0.136922
1880.930664 0.137104
1880.572266 0.142763
1879.970703 0.144831
1879.619141 0.140129
1879.009766 0.137687
1878.666016 0.133586
1878.048828 0.139594
1877.712891 0.142682
1877.086914 0.129223
1876.759766 0.132884
1876.125977 0.136299
1875.805664 0.134813
1875.164063 0.127226
1874.852539 0.140648
1874.202148 0.149149
1873.898438 0.146480
1873.240234 0.134913
1872.943359 0.139293
1872.277344 0.129718
1871.989258 0.131457
1871.315430 0.133559
1871.035156 0.139890
1870.352539 0.149010
1870.080078 0.141165
1869.389648 0.148975
1869.125000 0.139187
1868.425781 0.132176
1868.169922 0.122903
1867.462891 0.141170
1867.214844 0.150186
1866.499023 0.136626
1866.258789 0.137157
1865.535156 0.137882
1865.303711 0.150129
1864.570313 0.148157
1864.347656 0.125409
1863.606445 0.134598
1863.391602 0.138378
1862.641602 0.146800
1862.435547 0.144197
1861.676758 0.140328
1861.479492 0.139624
1860.711914 0.133754
1860.522461 0.151236
1859.746094 0.140220
1859.565430 0.131255
1858.781250 0.146683
1858.608398 0.135726
1857.815430 0.155091
1857.651367 0.133122
1856.849609 0.149222
1856.694336 0.148522
1855.882813 0.146599
1855.736328 0.138202
1854.916992 0.137491
1854.779297 0.145881
1853.950195 0.138762
1853.821289 0.142634
1852.983398 0.147163
1852.863281 0.138104
1852.015625 0.138709
1851.905273 0.148347
1851.048828 0.148403
1850.946289 0.156659
1850.081055 0.149670
1849.988281 0.139932
1849.113281 0.143811
1849.029297 0.136691
1848.145508 0.143783
1848.070313 0.157831
1847.176758 0.148288
1847.111328 0.162283
1846.208008 0.150850
1846.151367 0.148137
1845.239258 0.146289
1845.192383 0.135920
1844.270508 0.149497
1844.232422 0.146785
1843.301758 0.138468
1843.272461 0.155722
1842.332031 0.152674
1842.312500 0.161451
1841.362305 0.152645
1841.352539 0.161412
1840.392578 0.149382
1840.391602 0.151128
1839.430664 0.142887
1839.422852 0.160055
1838.470703 0.151263
1838.452148 0.152977
1837.508789 0.153819
1837.481445 0.156140
1836.547852 0.151205
1836.510742 0.146506
1835.586914 0.147945
1835.540039 0.150949
1834.625000 0.158897
1834.568359 0.163702
1833.663086 0.154992
1833.597656 0.155352
1832.701172 0.166584
1832.625000 0.149563
1831.739258 0.160096
1831.653320 0.159112
1830.777344 0.152320
1830.681641 0.143103
1829.814453 0.169068
1829.708984 0.155204
1828.851563 0.152906
1828.736328 0.150697
1827.888672 0.154166
1827.763672 0.153214
1826.925781 0.152846
1826.790039 0.151263
1825.962891 0.163778
1825.817383 0.160798
1824.999023 0.157944
1824.843750 0.166501
1824.035156 0.154046
1823.869141 0.144139
1823.071289 0.157238
1822.895508 0.142829
1822.107422 0.159785
1821.920898 0.144070
1821.143555 0.153956
1820.947266 0.155507
1820.178711 0.152638
1819.971680 0.154832
1819.214844 0.148101
1818.997070 0.159891
1818.250000 0.152579
1818.021484 0.154121
1817.285156 0.146756
1817.046875 0.150900
1816.319336 0.155093
1816.070313 0.164232
1815.354492 0.151202
1815.094727 0.153373
1814.388672 0.165325
1814.119141 0.159699
1813.422852 0.155645
1813.142578 0.152027
1812.457031 0.161402
1812.166016 0.139272
1811.491211 0.162014
1811.188477 0.153861
1810.525391 0.154269
1810.211914 0.160180
1809.558594 0.162593
1809.234375 0.149974
1808.591797 0.152923
1808.256836 0.159468
1807.625000 0.158032
1807.279297 0.154348
1806.658203 0.167635
1806.300781 0.161295
1805.690430 0.156044
1805.322266 0.164431
1804.723633 0.147667
1804.343750 0.152966
1803.755859 0.155983
1803.365234 0.149121
1802.788086 0.160444
1802.386719 0.145279
1801.820313 0.153355
1801.407227 0.153489
1800.851563 0.166155
1800.427734 0.165499
1799.883789 0.167405
1799.448242 0.146441
1798.915039 0.173785
1798.467773 0.157813
1797.946289 0.159004
1797.488281 0.146370
1796.977539 0.156409
1796.507813 0.153302
1796.007813 0.167914
1795.527344 0.162765
1795.039063 0.164677
1794.545898 0.163358
1794.069336 0.164004
1793.564453 0.163318
1793.099609 0.168455
1792.583008 0.165177
1792.129883 0.159457
1791.601563 0.155013
1791.160156 0.181194
1790.620117 0.151180
1790.189453 0.166435
1789.637695 0.158732
1789.218750 0.167682
1788.655273 0.163119
1788.248047 0.169569
1787.672852 0.144116
1787.277344 0.174013
1786.690430 0.155455
1786.306641 0.163105
1785.707031 0.169948
1785.334961 0.162434
1784.723633 0.160432
1784.364258 0.168795
1783.740234 0.157867
1783.392578 0.170040
1782.756836 0.157828
1782.420898 0.166811
1781.772461 0.169150
1781.448242 0.175085
1780.788086 0.169108
1780.476563 0.157801
1779.803711 0.162758
1779.503906 0.162240
1778.819336 0.159565
1778.531250 0.184560
1777.833984 0.151328
1777.558594 0.173669
1776.848633 0.162007
1776.585938 0.172358
1775.863281 0.190327
1775.612305 0.172962
1774.877930 0.169488
1774.638672 0.181223
1773.891602 0.177635
1773.666016 0.176721
1772.905273 0.179480
1772.691406 0.181788
1771.918945 0.168103
1771.717773 0.185579
1770.931641 0.180441
1770.744141 0.166173
1769.945313 0.176580
1769.769531 0.177459
1768.958008 0.174633
1768.794922 0.158541
1767.970703 0.172049
1767.820313 0.170452
1766.982422 0.171378
1766.845703 0.176698
1765.995117 0.186631
1765.870117 0.168482
1765.006836 0.177678
1764.894531 0.169697
1764.018555 0.192923
1763.919922 0.165884
1763.029297 0.186519
1762.944336 0.182176
1762.041016 0.186482
1761.967773 0.173338
1761.051758 0.172445
1760.992188 0.174551
1760.062500 0.187680
1760.015625 0.170741
1759.072266 0.182554
1759.039063 0.177601
1758.083008 0.174250
1758.062500 0.170656
1757.092773 0.192654
1757.085938 0.163086
1756.108398 0.183715
1756.101563 0.167435
1755.131836 0.185585
1755.111328 0.188082
1754.154297 0.181735
1754.120117 0.178633
1753.176758 0.164546
1753.128906 0.159163
1752.198242 0.187379
1751.220703 0.176546
1750.242188 0.170796
1749.263672 0.171396
1748.285156 0.178343
1747.306641 0.173866
1746.327148 0.184616
1745.348633 0.180773
1744.369141 0.178200
1743.389648 0.188943
1742.409180 0.176227
1741.429688 0.176825
1740.449219 0.175522
1739.468750 0.184356
1738.488281 0.169117
1737.507813 0.177949
1736.526367 0.189943
1735.544922 0.194336
1734.563477 0.177842
1733.582031 0.189828
1732.600586 0.182198
1731.618164 0.183426
1730.636719 0.185286
1729.654297 0.186513
1728.671875 0.182683
1727.688477 0.191494
1726.706055 0.174395
1725.722656 0.200261
1724.739258 0.186325
1723.755859 0.186287
1722.771484 0.186249
1721.788086 0.211461
1720.803711 0.172921
1719.819336 0.184243
1718.834961 0.178528
1717.850586 0.201829
1716.865234 0.207463
1715.879883 0.193551
1714.894531 0.190990
1713.909180 0.190951
1712.923828 0.200364
1711.937500 0.200953
1710.951172 0.190205
1709.964844 0.195834
1708.978516 0.209014
1707.991211 0.202048
1707.004883 0.205154
1706.017578 0.196932
1705.030273 0.200667
1704.042969 0.207544
1703.054688 0.210017
1702.066406 0.197401
1701.078125 0.199874
1700.089844 0.208003
1699.101563 0.214243
1698.113281 0.221109
1697.124023 0.200339
1696.134766 0.205322
1695.145508 0.209674
1694.155273 0.196451
1693.166016 0.194528
1692.175781 0.213937
1691.185547 0.203857
1690.195313 0.209460
1689.205078 0.210671
1688.213867 0.224419
1687.222656 0.207451
1686.231445 0.200515
1685.240234 0.207366
1684.249023 0.211708
1683.256836 0.204149
1682.264648 0.196594
1681.272461 0.213455
1680.280273 0.212160
1679.287109 0.210239
1678.294922 0.212698
1677.301758 0.210778
1676.308594 0.201980
1675.315430 0.195687
1674.321289 0.210023
1673.327148 0.211230
1672.333008 0.213061
1671.338867 0.214266
1670.344727 0.224215
1669.349609 0.213553
1668.355469 0.198526
1667.360352 0.220956
1666.365234 0.219038
1665.369141 0.205891
1664.374023 0.208967
1663.377930 0.216408
1662.381836 0.211998
1661.384766 0.205721
1660.388672 0.201939
1659.391602 0.223707
1658.395508 0.210577
1657.397461 0.214894
1656.400391 0.214849
1655.403320 0.213560
1654.405273 0.226588
1653.407227 0.207248
1652.409180 0.211561
1651.411133 0.225203
1650.412109 0.223291
1649.413086 0.235059
1648.414063 0.236876
1647.415039 0.228125
1646.416016 0.220620
1645.416016 0.223059
1644.416016 0.214937
1643.416016 0.237251
1642.416016 0.237823
1641.415039 0.218528
1640.415039 0.237724
1639.414063 0.221540
1638.413086 0.215290
1637.411133 0.222069
1636.410156 0.222643
1635.408203 0.240578
1634.406250 0.232469
1633.404297 0.226223
1632.402344 0.232992
1631.399414 0.215596
1630.396484 0.231036
1629.393555 0.236562
1628.390625 0.242085
1627.387695 0.233368
1626.383789 0.228987
1625.379883 0.235746
1624.375977 0.222087
1623.372070 0.235648
1622.367188 0.236217
1621.362305 0.239259
1620.357422 0.223756
1619.352539 0.237305
1618.347656 0.242816
1617.341797 0.243383
1616.335938 0.242097
1615.330078 0.243899
1614.324219 0.245700
1613.318359 0.237007
1612.311523 0.245597
1611.304688 0.232589
1610.297852 0.246111
1609.291016 0.237426
1608.283203 0.255873
1607.275391 0.233627
1606.267578 0.237276
1605.259766 0.240924
1604.251953 0.249498
1603.243164 0.233432
1602.234375 0.248777
1601.225586 0.246878
1600.216797 0.241287
1599.207031 0.244313
1598.198242 0.233187
1597.188477 0.247901
1596.178711 0.236779
1595.167969 0.258250
1594.158203 0.257581
1593.147461 0.239088
1592.136719 0.242725
1591.125977 0.234073
1590.114258 0.238937
1589.103516 0.234588
1588.091797 0.246204
1587.080078 0.227737
1586.067383 0.262057
1585.055664 0.247276
1584.042969 0.230660
1583.030273 0.232452
1582.017578 0.236695
1581.003906 0.246454
1579.991211 0.247628
1578.977539 0.244512
1577.963867 0.247524
1576.949219 0.237671
1575.935547 0.237008
1574.920898 0.245530
1573.906250 0.239356
1572.891602 0.225229
1571.876953 0.233748
1570.861328 0.231863
1569.845703 0.237319
1568.830078 0.242161
1567.814453 0.223157
1566.797852 0.231056
1565.782227 0.236507
1564.765625 0.246844
1563.749023 0.233353
1562.731445 0.238189
1561.714844 0.241192
1560.697266 0.241751
1559.679688 0.239258
1558.662109 0.237377
1557.643555 0.232446
1556.625000 0.247036
1555.607422 0.235396
1554.587891 0.235346
1553.569336 0.237735
1552.549805 0.236465
1551.531250 0.229103
1550.511719 0.255859
1549.491211 0.256413
1548.471680 0.232611
1547.451172 0.233170
1546.430664 0.254424
1545.410156 0.234896
1544.389648 0.231804
1543.368164 0.236013
1542.346680 0.234746
1541.325195 0.240777
1540.303711 0.233431
1539.282227 0.233381
1538.259766 0.236977
1537.237305 0.241786
1536.214844 0.238698
1535.191406 0.241076
1534.168945 0.240417
1533.145508 0.244615
1532.122070 0.228178
1531.098633 0.239657
1530.074219 0.242032
1529.050781 0.228638
1528.026367 0.229802
1527.000977 0.238846
1525.976563 0.233340
1524.951172 0.232078
1523.926758 0.249597
1522.901367 0.255601
1521.875000 0.248279
1520.849609 0.245199
1519.823242 0.245752
1518.796875 0.247515
1517.770508 0.250487
1516.743164 0.238335
1515.716797 0.254008
1514.689453 0.250930
1513.662109 0.255713
1512.634766 0.268350
1511.606445 0.261646
1510.578125 0.261589
1509.549805 0.254285
1508.521484 0.253627
1507.493164 0.267458
1506.463867 0.258347
1505.434570 0.249842
1504.405273 0.252202
1503.375977 0.261800
1502.345703 0.253300
1501.315430 0.277967
1500.285156 0.253794
1499.254883 0.254945
1498.223633 0.268146
1497.193359 0.247605
1496.162109 0.264417
1495.130859 0.252316
1494.098633 0.258282
1493.067383 0.254615
1492.035156 0.259976
1491.002930 0.267742
1489.969727 0.258060
1488.937500 0.267627
1487.904297 0.253739
1486.871094 0.254286
1485.837891 0.253630
1484.803711 0.260185
1483.770508 0.249916
1482.736328 0.231242
1481.702148 0.260617
1480.666992 0.248553
1479.632813 0.252101
1478.597656 0.247845
1477.562500 0.259191
1476.527344 0.253737
1475.491211 0.251283
1474.455078 0.248830
1473.418945 0.250574
1472.382813 0.250520
1471.346680 0.255259
1470.309570 0.239628
1469.272461 0.246165
1468.235352 0.253297
1467.198242 0.255038
1466.160156 0.272939
1465.122070 0.256723
1464.083984 0.252479
1463.045898 0.245246
1462.006836 0.261938
1460.968750 0.249325
1459.929688 0.251662
1458.889648 0.255791
1457.850586 0.259320
1456.810547 0.249705
1455.771484 0.256221
1454.730469 0.269302
1453.690430 0.269243
1452.649414 0.265006
1451.609375 0.252417
1450.568359 0.256539
1449.526367 0.272587
1448.485352 0.260601
1447.443359 0.268891
1446.401367 0.259295
1445.359375 0.268774
1444.316406 0.275269
1443.274414 0.259721
1442.231445 0.276340
1441.188477 0.279257
1440.144531 0.269076
1439.101563 0.271993
1438.057617 0.293950
1437.013672 0.283178
1435.968750 0.309881
1434.924805 0.287216
1433.879883 0.294882
1432.834961 0.307894
1431.790039 0.308421
1430.744141 0.323207
1429.698242 0.338580
1428.653320 0.339694
1427.606445 0.355056
1426.560547 0.353791
1425.513672 0.357275
1424.466797 0.361350
1423.419922 0.360677
1422.373047 0.352295
1421.325195 0.329092
1420.277344 0.329613
1419.229492 0.339616
1418.181641 0.334208
1417.132813 0.343614
1416.084961 0.326362
1415.036133 0.322737
1413.986328 0.323850
1412.937500 0.346863
1411.887695 0.337910
1410.837891 0.333694
1409.788086 0.338353
1408.738281 0.325859
1407.687500 0.342934
1406.636719 0.328080
1405.585938 0.306732
1404.534180 0.310209
1403.483398 0.286511
1402.431641 0.301213
1401.379883 0.303509
1400.327148 0.307574
1399.275391 0.287439
1398.222656 0.286785
1397.169922 0.293801
1396.117188 0.296686
1395.063477 0.287185
1394.009766 0.300681
1392.956055 0.292952
1391.902344 0.307620
1390.848633 0.286931
1389.793945 0.304539
1388.739258 0.313305
1387.684570 0.304993
1386.628906 0.312578
1385.574219 0.318394
1384.518555 0.320677
1383.462891 0.328841
1382.406250 0.322299
1381.350586 0.322227
1380.293945 0.315689
1379.237305 0.322084
1378.179688 0.312611
1377.123047 0.320766
1376.065430 0.309535
1375.007813 0.318275
1373.949219 0.311746
1372.891602 0.305220
1371.833008 0.308086
1370.774414 0.296870
1369.715820 0.289179
1368.656250 0.288528
1367.596680 0.287291
1366.537109 0.283124
1365.477539 0.274856
1364.417969 0.298818
1363.357422 0.281177
1362.296875 0.282286
1361.236328 0.285151
1360.174805 0.280989
1359.113281 0.281512
1358.052734 0.279693
1356.990234 0.294841
1355.928711 0.282493
1354.866211 0.275413
1353.803711 0.283536
1352.741211 0.276458
1351.678711 0.276981
1350.615234 0.277503
1349.551758 0.275689
1348.488281 0.272707
1347.424805 0.264473
1346.360352 0.290096
1345.295898 0.266688
1344.231445 0.281214
1343.166992 0.264235
1342.101563 0.279922
1341.036133 0.296184
1339.970703 0.276882
1338.905273 0.281482
1337.838867 0.286662
1336.772461 0.286598
1335.706055 0.290610
1334.639648 0.282393
1333.572266 0.293390
1332.504883 0.293324
1331.437500 0.297331
1330.370117 0.329259
1329.302734 0.314645
1328.234375 0.315737
1327.166016 0.301132
1326.096680 0.295834
1325.028320 0.299834
1323.958984 0.302672
1322.889648 0.279371
1321.820313 0.315310
1320.750000 0.278664
1319.679688 0.289629
1318.609375 0.277958
1317.539063 0.281376
1316.468750 0.303933
1315.397461 0.283568
1314.326172 0.271909
1313.254883 0.278803
1312.182617 0.282217
1311.142578 0.268248
1311.110352 0.282038
1310.069336 0.279193
1310.038086 0.276246
1308.997070 0.264652
1308.965820 0.269828
1307.923828 0.276171
1307.892578 0.268622
1306.851563 0.271478
1306.820313 0.275519
1305.778320 0.258684
1305.747070 0.265632
1304.704102 0.270776
1304.672852 0.259798
1303.630859 0.264930
1303.599609 0.267272
1302.557617 0.249834
1302.525391 0.270695
1301.483398 0.268857
1301.451172 0.289730
1300.409180 0.254923
1300.376953 0.256142
1299.334961 0.265845
1299.301758 0.273439
1298.259766 0.259429
1298.227539 0.279748
1297.185547 0.262836
1297.152344 0.275074
1296.110352 0.284847
1296.076172 0.276637
1295.035156 0.285373
1295.000977 0.280038
1293.959961 0.285899
1293.924805 0.278243
1292.883789 0.280073
1292.848633 0.272985
1291.808594 0.280600
1291.772461 0.288502
1290.732422 0.292094
1290.695313 0.290743
1289.656250 0.299544
1289.618164 0.278566
1288.580078 0.317955
1288.541016 0.299260
1287.502930 0.316167
1287.463867 0.306686
1286.426758 0.313225
1286.386719 0.310074
1285.349609 0.319512
1285.308594 0.293869
1284.272461 0.310805
1284.230469 0.296106
1283.195313 0.311901
1283.152344 0.301222
1282.118164 0.307809
1282.073242 0.295971
1281.040039 0.291616
1280.994141 0.286692
1279.961914 0.300782
1279.915039 0.271662
1278.883789 0.291510
1278.835938 0.290014
1277.805664 0.290880
1277.755859 0.272688
1276.727539 0.296010
1276.676758 0.279528
1275.648438 0.279834
1275.596680 0.267963
1274.569336 0.293599
1274.515625 0.279975
1273.490234 0.287214
1273.435547 0.270139
1272.411133 0.300972
1272.354492 0.273525
1271.332031 0.293437
1271.273438 0.276335
1270.251953 0.278426
1270.191406 0.252148
1269.171875 0.271473
1269.110352 0.267594
1268.091797 0.277174
1268.028320 0.266959
1267.011719 0.278847
1266.946289 0.246234
1265.931641 0.271898
1265.864258 0.250195
1264.850586 0.263227
1264.781250 0.257022
1263.769531 0.264902
1263.698242 0.257536
1262.688477 0.257959
1262.615234 0.248302
1261.607422 0.267102
1261.532227 0.251111
1260.526367 0.264180
1260.448242 0.267102
1259.444336 0.262409
1259.364258 0.255580
1258.362305 0.266379
1258.280273 0.257240
1257.280273 0.273791
1257.196289 0.264626
1256.198242 0.259967
1256.111328 0.239369
1255.115234 0.275985
1255.026367 0.253054
1254.033203 0.259297
1253.941406 0.245554
1252.950195 0.282191
1252.856445 0.251220
1251.867188 0.256906
1251.770508 0.236859
1250.783203 0.271192
1250.684570 0.239092
1249.700195 0.253944
1249.598633 0.247043
1248.616211 0.259055
1248.511719 0.255562
1247.532227 0.263018
1247.425781 0.241784
1246.448242 0.262969
1246.338867 0.247443
1245.364258 0.277813
1245.250977 0.247957
1244.279297 0.254852
1244.164063 0.246757
1243.195313 0.258240
1243.076172 0.263261
1242.110352 0.273649
1241.988281 0.250639
1241.024414 0.280466
1240.900391 0.243161
1239.939453 0.263245
1239.812500 0.260224
1238.853516 0.264912
1238.723633 0.261876
1237.768555 0.264862
1237.634766 0.266378
1236.682617 0.264813
1236.544922 0.252059
1235.595703 0.252754
1235.456055 0.264544
1234.509766 0.278434
1234.366211 0.256502
1233.422852 0.263520
1233.276367 0.249604
1232.336914 0.273186
1232.186523 0.255243
1231.250000 0.271991
1231.095703 0.249488
1230.162109 0.266798
1230.004883 0.240888
1229.075195 0.262178
1228.914063 0.250510
1227.987305 0.262700
1227.823242 0.249314
1226.899414 0.269502
1226.731445 0.252670
1225.811523 0.256320
1225.639648 0.242370
1224.723633 0.262550
1224.547852 0.245157
1223.634766 0.261359
1223.456055 0.253630
1222.546875 0.262450
1222.363281 0.232535
1221.458008 0.244147
1221.270508 0.261470
1220.368164 0.263491
1220.177734 0.229585
1219.279297 0.272565
1219.084961 0.259075
1218.189453 0.266242
1217.991211 0.260150
1217.100586 0.263341
1216.897461 0.258386
1216.010742 0.262721
1215.803711 0.265138
1214.919922 0.275776
1214.708984 0.263941
1213.830078 0.283129
1213.614258 0.279201
1212.739258 0.293327
1212.519531 0.291050
1211.648438 0.300674
1211.424805 0.291549
1210.557617 0.288660
1210.329102 0.293182
1209.466797 0.292020
1209.234375 0.275537
1208.375977 0.287980
1208.138672 0.280007
1207.284180 0.294184
1207.041992 0.277675
1206.192383 0.289007
1205.946289 0.265145
1205.100586 0.283833
1204.849609 0.261684
1204.007813 0.278660
1203.752930 0.282009
1202.916016 0.274058
1202.655273 0.266657
1201.823242 0.276847
1201.558594 0.281310
1200.730469 0.293845
1200.460938 0.269361
1199.637695 0.286969
1199.362305 0.264205
1198.543945 0.288619
1198.264648 0.278849
1197.451172 0.283451
1197.166016 0.273694
1196.357422 0.291915
1196.067383 0.282675
1195.263672 0.294130
1194.968750 0.285999
1194.168945 0.276474
1193.870117 0.292713
1193.075195 0.307071
1192.770508 0.299423
1191.980469 0.300202
1191.670898 0.299352
1190.885742 0.304115
1190.570313 0.280082
1189.791016 0.309162
1189.470703 0.292436
1188.696289 0.297759
1188.370117 0.270919
1187.600586 0.300536
1187.269531 0.289476
1186.504883 0.284603
1186.167969 0.259508
1185.409180 0.286816
1185.067383 0.262830
1184.313477 0.253890
1183.965820 0.257129
1183.216797 0.275939
1182.864258 0.251431
1182.121094 0.259456
1181.761719 0.237281
1181.024414 0.256008
1180.659180 0.261454
1179.927734 0.254825
1179.556641 0.241675
1178.830078 0.250246
1178.454102 0.246686
1177.733398 0.256990
1177.351563 0.250006
1176.635742 0.234302
1176.248047 0.233621
1175.538086 0.236520
1175.144531 0.242571
1174.440430 0.263628
1174.040039 0.235198
1173.341797 0.238124
1172.936523 0.226142
1172.243164 0.243167
1171.832031 0.225525
1171.145508 0.246512
1170.727539 0.227158
1170.045898 0.241376
1169.622070 0.238909
1168.947266 0.234547
1168.517578 0.232670
1167.848633 0.235066
1167.412109 0.237671
1166.749023 0.231065
1166.306641 0.221324
1165.649414 0.249095
1165.200195 0.228572
1164.549805 0.255822
1164.093750 0.230763
1163.449219 0.234881
1162.987305 0.227901
1162.348633 0.226932
1161.880859 0.230653
1161.249023 0.231403
1160.773438 0.215449
1160.147461 0.236436
1159.666016 0.246248
1159.046875 0.243159
1158.558594 0.213663
1157.946289 0.228446
1157.451172 0.229871
1156.844727 0.225581
1156.342773 0.223090
1155.743164 0.227228
1155.234375 0.209587
1154.641602 0.219855
1154.125977 0.221862
1153.539063 0.235029
1153.017578 0.225170
1152.436523 0.231038
1151.908203 0.215036
1151.334961 0.242824
1150.798828 0.218903
1150.231445 0.232636
1149.689453 0.192543
1149.128906 0.235406
1148.579102 0.224953
1148.026367 0.226914
1147.468750 0.217626
1146.922852 0.231372
1146.358398 0.226523
1145.819336 0.238081
1145.248047 0.218080
1144.715820 0.243098
1144.136719 0.226413
1143.611328 0.240237
1143.025391 0.236419
1142.506836 0.230626
1141.914063 0.218481
1141.403320 0.230018
1140.801758 0.232953
1140.297852 0.244029
1139.689453 0.213349
1139.193359 0.243981
1138.577148 0.225582
1138.088867 0.222012
1137.464844 0.229993
1136.983398 0.243322
1136.351563 0.231612
1135.877930 0.241588
1135.239258 0.215375
1134.771484 0.250527
1134.125000 0.227037
1133.666016 0.237560
1133.011719 0.224193
1132.559570 0.235267
1131.897461 0.214103
1131.453125 0.245325
1130.783203 0.233561
1130.346680 0.222825
1129.668945 0.215671
1129.240234 0.233443
1128.553711 0.220633
1128.132813 0.237323
1127.439453 0.223921
1127.025391 0.237276
1126.324219 0.241130
1125.917969 0.243958
1125.208008 0.237731
1124.810547 0.233256
1124.092773 0.234890
1123.702148 0.244982
1122.976563 0.239285
1122.594727 0.228679
1121.859375 0.237001
1121.486328 0.244323
1120.743164 0.246399
1120.377930 0.242033
1119.625977 0.241334
1119.268555 0.241985
1118.508789 0.236828
1118.159180 0.245856
1117.391602 0.232324
1117.050781 0.238528
1116.273438 0.216708
1115.940430 0.255834
1115.155273 0.233321
1114.831055 0.232835
1114.037109 0.229932
1113.721680 0.242301
1112.918945 0.210442
1112.611328 0.236658
1111.799805 0.210390
1111.500977 0.217032
1110.680664 0.214778
1110.389648 0.227614
1109.561523 0.215281
1109.279297 0.225891
1108.441406 0.213009
1108.167969 0.226964
1107.321289 0.211848
1107.056641 0.214622
1106.201172 0.212350
1105.945313 0.224637
1105.081055 0.197886
1104.833984 0.219005
1103.959961 0.201162
1103.721680 0.226780
1102.838867 0.206653
1102.609375 0.222267
1101.717773 0.219896
1101.497070 0.230039
1100.595703 0.198799
1100.384766 0.211012
1099.473633 0.219788
1099.271484 0.219341
1098.351563 0.209217
1098.158203 0.213717
1097.229492 0.203079
1097.044922 0.213674
1096.106445 0.198603
1095.931641 0.205264
1094.983398 0.201873
1094.818359 0.214145
1093.860352 0.204035
1093.704102 0.207410
1092.737305 0.220015
1092.589844 0.210713
1091.613281 0.193433
1091.475586 0.198966
1090.489258 0.198358
1090.360352 0.202269
1089.364258 0.203833
1089.246094 0.191643
1088.240234 0.192737
1088.130859 0.205529
1087.115234 0.196002
1087.015625 0.212170
1085.989258 0.202026
1085.900391 0.211013
1084.864258 0.187076
1084.784180 0.207073
1083.738281 0.206339
1083.667969 0.215936
1082.612305 0.202978
1082.551758 0.205320
1081.486328 0.217265
1081.435547 0.198046
1080.359375 0.199570
1080.318359 0.220809
1079.232422 0.209441
1079.202148 0.211311
1078.105469 0.209940
1078.084961 0.219051
1076.977539 0.217049
1076.966797 0.213448
1075.849609 0.204879
1075.849609 0.215627
1074.731445 0.211435
1074.721680 0.205582
1073.613281 0.221291
1073.593750 0.229983
1072.495117 0.208027
1072.464844 0.219383
1071.376953 0.217117
1071.335938 0.216228
1070.257813 0.210965
1070.207031 0.202973
1069.138672 0.211477
1069.077148 0.192474
1068.019531 0.222533
1067.948242 0.216616
1066.900391 0.203623
1066.817383 0.208867
1065.781250 0.214676
1065.687500 0.214859
1064.661133 0.215741
1064.556641 0.209861
1063.541016 0.205716
1063.425781 0.204316
1062.419922 0.212326
1062.294922 0.204265
1061.299805 0.214499
1061.163086 0.206409
1060.178711 0.213347
1060.032227 0.212395
1059.057617 0.222721
1058.899414 0.202465
1057.936523 0.206612
1057.767578 0.220516
1056.815430 0.210446
1056.634766 0.196879
1055.693359 0.213171
1055.501953 0.214374
1054.571289 0.225860
1054.369141 0.196232
1053.449219 0.210316
1053.235352 0.212074
1052.327148 0.197546
1052.101563 0.212569
1051.204102 0.226826
1050.967773 0.219635
1050.081055 0.206867
1049.833984 0.200415
1048.958008 0.211801
1048.699219 0.207481
1047.834961 0.216734
1047.564453 0.207976
1046.710938 0.216136
1046.428711 0.210659
1045.586914 0.228250
1045.293945 0.220999
1044.462891 0.238701
1044.158203 0.196333
1043.338867 0.230918
1043.021484 0.212139
1042.213867 0.222033
1041.885742 0.224111
1041.089844 0.223644
1040.749023 0.208206
1039.964844 0.222493
1039.612305 0.207061
1038.838867 0.227415
1038.474609 0.196084
1037.713867 0.216882
1037.337891 0.201495
1036.587891 0.217389
1036.200195 0.208541
1035.461914 0.214586
1035.061523 0.222678
1034.335938 0.221159
1033.923828 0.204069
1033.209961 0.248684
1032.785156 0.208927
1032.083008 0.215003
1031.646484 0.212691
1030.956055 0.219919
1030.506836 0.222451
1029.829102 0.217118
1029.367188 0.205497
1028.701172 0.218175
1028.227539 0.208714
1027.574219 0.217579
1027.087891 0.213564
1026.446289 0.214780
1025.947266 0.211875
1025.318359 0.218589
1024.806641 0.219989
1024.189453 0.222948
1023.666016 0.216666
1023.061523 0.225103
1022.524414 0.222053
1021.932617 0.221754
1021.382813 0.214379
1020.803711 0.226109
1020.241211 0.199636
1019.674805 0.227712
1019.098633 0.216988
1018.544922 0.215566
1017.957031 0.220738
1017.415039 0.208924
1016.813477 0.206549
1016.285156 0.227020
1015.670898 0.223341
1015.155273 0.239612
1014.527344 0.213505
1014.024414 0.226375
1013.383789 0.218881
1012.894531 0.233470
1012.240234 0.214481
1011.763672 0.218042
1011.095703 0.234511
1010.631836 0.231725
1009.951172 0.229566
1009.500977 0.231676
1008.806641 0.225167
1008.369141 0.237116
1007.662109 0.231075
1007.237305 0.240359
1006.516602 0.220170
1006.105469 0.232079
1005.371094 0.214149
1004.972656 0.236967
1004.224609 0.209758
1003.840820 0.235272
1003.079102 0.213496
1002.708008 0.224805
1001.932617 0.220484
1001.575195 0.231884
1000.785156 0.212303
1000.441406 0.216490
999.638672 0.215496
999.307617 0.221376
998.491211 0.200825
998.173828 0.209825
997.342773 0.207808
997.040039 0.229499
996.195313 0.206672
995.906250 0.217951
995.046875 0.197964
994.771484 0.215715
993.898438 0.206024
993.636719 0.213480
992.749023 0.208673
992.501953 0.219455
991.599609 0.203754
991.367188 0.204088
990.450195 0.208024
990.231445 0.210610
989.300781 0.213371
989.095703 0.217675
987.959961 0.222004
986.824219 0.217584
985.687500 0.209886
984.550781 0.224596
983.414063 0.220178
982.277344 0.217400
981.139648 0.228823
980.001953 0.226044
978.864258 0.217262
977.726563 0.213942
976.587891 0.218262
975.449219 0.226399
974.310547 0.230169
973.171875 0.230665
972.032227 0.234433
970.893555 0.225117
969.752930 0.235423
968.613281 0.229380
967.473633 0.230421
966.333008 0.242898
965.192383 0.233590
964.050781 0.241706
962.910156 0.248186
961.768555 0.242692
960.626953 0.223599
959.485352 0.242045
958.342773 0.238730
957.200195 0.226175
956.057617 0.217973
954.915039 0.229883
953.771484 0.234181
952.628906 0.225982
951.485352 0.218331
950.340820 0.212311
949.197266 0.216609
948.052734 0.220362
946.908203 0.221400
945.762695 0.223523
944.618164 0.228357
943.472656 0.220174
942.327148 0.229344
941.181641 0.223874
940.035156 0.237375
938.888672 0.225404
937.742188 0.205854
936.595703 0.223683
935.448242 0.222011
934.301758 0.213842
933.154297 0.220833
932.005859 0.222409
930.858398 0.225067
929.709961 0.214741
928.561523 0.216317
927.413086 0.232491
926.263672 0.238928
925.114258 0.237256
923.964844 0.221535
922.815430 0.244176
921.665039 0.234942
920.514648 0.237052
919.364258 0.244019
918.213867 0.240728
917.062500 0.243914
915.911133 0.243322
914.759766 0.243270
913.608398 0.234050
912.456055 0.228068
911.303711 0.237183
910.151367 0.245216
908.999023 0.240853
907.845703 0.234875
906.692383 0.254213
905.539063 0.250389
904.385742 0.241183
903.231445 0.250281
902.077148 0.242155
900.922852 0.259319
899.768555 0.251733
898.613281 0.243074
897.458008 0.265065
896.302734 0.260170
895.146484 0.269250
893.991211 0.271341
892.834961 0.287398
891.678711 0.281428
890.521484 0.289958
889.364258 0.297948
888.207031 0.316669
887.049805 0.332162
885.892578 0.335846
884.734375 0.347573
883.576172 0.339990
882.417969 0.336163
881.258789 0.331266
880.099609 0.318868
878.940430 0.310762
877.781250 0.312837
876.621094 0.302594
875.461914 0.293961
874.301758 0.279978
873.140625 0.259579
871.980469 0.271295
870.819336 0.256256
869.658203 0.239085
868.496094 0.263096
867.334961 0.257158
866.172852 0.249619
865.010742 0.248496
863.847656 0.237756
862.685547 0.245182
861.522461 0.242459
860.359375 0.249347
859.195313 0.242887
858.031250 0.249238
856.867188 0.253986
855.703125 0.252330
854.539063 0.254942
853.374023 0.255419
852.208984 0.256963
851.043945 0.261704
849.877930 0.253653
848.711914 0.249335
847.545898 0.271120
846.379883 0.266267
845.212891 0.271001
844.046875 0.268280
842.879883 0.290573
841.711914 0.288381
840.544922 0.306936
839.376953 0.332397
838.208008 0.339237
837.040039 0.379032
835.871094 0.426251
834.702148 0.484608
833.533203 0.577471
832.364258 0.708535
831.194336 0.800245
830.024414 0.916868
828.854492 1.000000
827.683594 0.964756
826.513672 0.900347
825.342773 0.834375
824.170898 0.718582
823.000000 0.631471
821.828125 0.543338
820.656250 0.498701
819.483398 0.429710
818.311523 0.410015
817.138672 0.363848
815.965820 0.340470
814.791992 0.327160
813.619141 0.315973
812.445313 0.306379
811.270508 0.293614
810.096680 0.298310
808.921875 0.284495
807.747070 0.288662
806.572266 0.264284
805.396484 0.277965
804.221680 0.270507
803.045898 0.256186
801.869141 0.267219
800.693359 0.250265
799.516602 0.269740
798.339844 0.272847
797.162109 0.269621
795.985352 0.272199
794.807617 0.271084
793.628906 0.276824
792.451172 0.267273
791.272461 0.275647
790.093750 0.272951
788.915039 0.282373
787.735352 0.275464
786.556641 0.292780
785.375977 0.289030
784.196289 0.280544
783.015625 0.278377
781.835938 0.281998
780.654297 0.260895
779.473633 0.265570
778.291992 0.263934
777.110352 0.264401
775.928711 0.259612
774.747070 0.241690
773.564453 0.247940
772.381836 0.245259
771.199219 0.253606
770.015625 0.236751
768.832031 0.243521
767.648438 0.253961
766.464844 0.253904
765.280273 0.275351
764.095703 0.273193
762.911133 0.285189
761.725586 0.291415
760.541016 0.327507
759.355469 0.329530
758.168945 0.372406
756.983398 0.372323
755.796875 0.362292
754.610352 0.358547
753.422852 0.344338
752.236328 0.344261
751.048828 0.321692
749.861328 0.319005
748.672852 0.318934
747.485352 0.310499
746.296875 0.309384
745.107422 0.295208
743.918945 0.290440
742.729492 0.281497
741.540039 0.270991
740.349609 0.252659
739.160156 0.258344
737.969727 0.267156
736.779297 0.255620
735.587891 0.263907
734.397461 0.260719
733.206055 0.252320
732.013672 0.246009
730.822266 0.260023
729.629883 0.244856
728.437500 0.251572
727.244141 0.249954
726.051758 0.246253
724.858398 0.253485
723.665039 0.258111
722.470703 0.251290
721.276367 0.257995
720.082031 0.261577
718.887695 0.251640
717.693359 0.260940
716.498047 0.271794
715.302734 0.255627
714.106445 0.264400
712.911133 0.259147
711.714844 0.260646
710.517578 0.265778
709.321289 0.266756
708.124023 0.266177
706.926758 0.261967
705.729492 0.261908
704.531250 0.272219
703.333008 0.252459
702.134766 0.259658
700.936523 0.272553
699.737305 0.272492
698.538086 0.277609
697.338867 0.276511
696.138672 0.293015
694.938477 0.288808
693.738281 0.290812
692.538086 0.273674
691.336914 0.295853
690.135742 0.286995
688.934570 0.272971
687.732422 0.271876
686.531250 0.278015
685.328125 0.281052
684.125977 0.279955
682.923828 0.278859
681.720703 0.287573
680.516602 0.273055
679.313477 0.288474
678.109375 0.289441
676.905273 0.292470
675.701172 0.283636
674.496094 0.296462
673.291992 0.302580
672.085938 0.310757
670.880859 0.287501
669.674805 0.294132
668.468750 0.301790
667.262695 0.302751
666.055664 0.294446
664.849609 0.278425
663.642578 0.311291
662.434570 0.276755
661.227539 0.284920
660.019531 0.285884
658.810547 0.280164
657.602539 0.287809
656.393555 0.276953
655.184570 0.274322
653.975586 0.281963
652.765625 0.285493
651.555664 0.284914
650.345703 0.274071
649.134766 0.282219
647.924805 0.271894
646.712891 0.260035
645.501953 0.267155
644.291016 0.247100
643.079102 0.265495
641.866211 0.277732
640.654297 0.266910
639.441406 0.282215
638.228516 0.277030
637.015625 0.263655
635.801758 0.274344
634.587891 0.272234
633.374023 0.268590
632.160156 0.278247
630.945313 0.281763
629.730469 0.285788
628.514648 0.278567
627.299805 0.298943
626.083984 0.292233
624.868164 0.294209
623.651367 0.275758
622.435547 0.285395
621.218750 0.290944
620.000977 0.306186
618.784180 0.305606
617.566406 0.311656
616.347656 0.335553
615.129883 0.293668
613.911133 0.301756
612.692383 0.295572
611.473633 0.293975
610.253906 0.294926
609.034180 0.283655
607.814453 0.291226
606.594727 0.286578
605.374023 0.272263
604.153320 0.290516
602.931641 0.298079
601.710938 0.301062
600.489258 0.298450
599.267578 0.297873
598.044922 0.298820
596.822266 0.288082
595.599609 0.302746
594.376953 0.288964
593.153320 0.287374
591.929688 0.285277
590.706055 0.301959
589.481445 0.304426
588.257813 0.299790
587.032227 0.294142
585.807617 0.315369
584.582031 0.319351
583.356445 0.322824
582.130859 0.328323
580.905273 0.322675
579.678711 0.329183
578.452148 0.323538
577.224609 0.331056
575.997070 0.318833
574.769531 0.306615
573.541992 0.335378
572.313477 0.326702
571.084961 0.305896
569.856445 0.322506
568.627930 0.330012
567.398438 0.312757
566.168945 0.324807
564.939453 0.310591
563.708984 0.305974
562.478516 0.299341
561.248047 0.306841
560.016602 0.303238
558.785156 0.291061
557.553711 0.283428
556.322266 0.301513
555.089844 0.293882
553.857422 0.296837
552.625000 0.291729
551.391602 0.293676
550.158203 0.288068
548.924805 0.295553
547.690430 0.280886
546.457031 0.291892
545.222656 0.290314
543.987305 0.274652
542.752930 0.283138
541.517578 0.285082
540.281250 0.288534
539.045898 0.287964
537.809570 0.284380
536.573242 0.297373
535.335938 0.288766
534.099609 0.290205
532.861328 0.305196
531.624023 0.296593
530.385742 0.292509
529.148438 0.287425
527.909180 0.308420
526.670898 0.302331
525.431641 0.308275
524.192383 0.311209
522.952148 0.295605
521.712891 0.309560
520.472656 0.307985
519.231445 0.301905
517.991211 0.318352
516.750000 0.316275
515.508789 0.312698
514.266602 0.324630
513.024414 0.329054
511.782227 0.328476
510.540039 0.332897
509.296875 0.310831
508.053711 0.323248
506.810547 0.320674
505.566406 0.339075
504.322266 0.317028
503.078125 0.332426
501.833008 0.333845
500.587891 0.315805
499.342773 0.342665
498.097656 0.335603
496.851563 0.318572
495.605469 0.347904
494.359375 0.334866
493.112305 0.335783
491.865234 0.336700
490.618164 0.346081
489.370117 0.333055
488.123047 0.331483
486.874023 0.352801
485.625977 0.349235
484.376953 0.345671
483.127930 0.348572
481.878906 0.357935
480.628906 0.358844
479.378906 0.356771
478.128906 0.366621
476.877930 0.379447
475.626953 0.374392
474.375977 0.397138
473.125000 0.400518
471.873047 0.410842
470.621094 0.404791
469.368164 0.424533
468.115234 0.443273
466.862305 0.440193
465.609375 0.481223
464.355469 0.503404
463.102539 0.515173
461.847656 0.553183
460.593750 0.613951
459.338867 0.686074
458.083984 0.730450
456.828125 0.779257
455.572266 0.841396
454.316406 0.879768
453.060547 0.852365
451.803711 0.818055
450.546875 0.760535
449.290039 0.698101
448.032227 0.651504
446.774414 0.613323
445.516602 0.569237
444.257813 0.564164
442.999023 0.544784
441.740234 0.522946
440.481445 0.506544
439.221680 0.509381
437.961914 0.501863
436.701172 0.507164
435.441406 0.508028
434.180664 0.513817
432.918945 0.526006
431.658203 0.533758
430.396484 0.553320
429.133789 0.522673
427.872070 0.518118
426.609375 0.525864
425.346680 0.538032
424.083008 0.536428
422.819336 0.546621
421.555664 0.545506
420.291016 0.560114
419.027344 0.579136
417.762695 0.599621
416.497070 0.609787
415.231445 0.617493
413.965820 0.647278
412.700195 0.664293
411.433594 0.691600
410.166992 0.712028
408.900391 0.743722
407.632813 0.770499
406.365234 0.803144
405.097656 0.816666
403.830078 0.819406
402.561523 0.833897
401.291992 0.864536
400.023438 0.880477
398.753906 0.883198
397.484375 0.939240
396.214844 0.950749
394.944336 0.973009
393.673828 0.984504
392.402344 0.978888
391.130859 1.008454
389.859375 1.016512
388.587891 1.043123
387.315430 1.031151
386.042969 1.048959
384.770508 1.059927
383.497070 1.070401
382.223633 1.075505
380.950195 1.095723
379.676758 1.082292
378.402344 1.088363
377.126953 1.076402
375.852539 1.100983
374.577148 1.094869
373.301758 1.111643
372.025391 1.056848
370.749023 1.088710
369.472656 1.072873
368.196289 1.086230
366.918945 1.068942
365.641602 1.073055
364.363281 1.110706
363.085938 1.099741
361.807617 1.094126
360.528320 1.077342
359.249023 1.091645
357.969727 1.087007
356.690430 1.104212
355.410156 1.065120
354.129883 1.074560
352.849609 1.065080
351.568359 1.053664
350.287109 1.044678
349.005859 1.022611
347.723633 1.002977
346.441406 1.010964
345.159180 1.015072
343.875977 0.959626
342.592773 0.974394
341.309570 0.954311
340.026367 0.916821
338.742188 0.874029
337.457031 0.890254
336.172852 0.843138
334.887695 0.798946
333.602539 0.791499
332.316406 0.764732
331.030273 0.755849
329.744141 0.751798
328.457031 0.699959
327.170898 0.731154
325.882813 0.704435
324.595703 0.676282
323.307617 0.686723
322.019531 0.669195
320.730469 0.647820
319.441406 0.651995
318.152344 0.637379
316.863281 0.630477
315.573242 0.644284
314.283203 0.641716
312.992188 0.634817
311.701172 0.634177
310.410156 0.639791
309.119141 0.641555
307.827148 0.640913
306.535156 0.634023
305.242188 0.640592
303.950195 0.683190
302.656250 0.674373
301.363281 0.694852
300.069336 0.731164
298.775391 0.737220
297.480469 0.765345
296.186523 0.792016
294.891602 0.844093
293.595703 0.870731
292.299805 0.930911
291.003906 1.007833
289.708008 1.059323
288.411133 1.141922
287.114258 1.225437
285.816406 1.295504
284.518555 1.402390
283.220703 1.485296
281.922852 1.582512
280.624023 1.653851
279.325195 1.712723
278.025391 1.802158
276.725586 1.894893
275.425781 2.036792
274.125977 2.120821
272.825195 2.182841
271.523438 2.262971
270.222656 2.370743
268.920898 2.408314
267.619141 2.522195
266.316406 2.584509
265.013672 2.680167
263.710938 2.670427
262.408203 2.717881
261.104492 2.809142
259.799805 2.828908
258.496094 2.897712
257.191406 2.955055
255.886719 2.958107
254.581055 3.036817
253.275391 3.055545
251.969727 3.062373
250.663086 3.135763
249.356445 3.192003
248.049805 3.198789
246.742188 3.186091
245.434570 3.193824
244.126953 3.179233
242.818359 3.194558
241.509766 3.215095
240.201172 3.148314
238.891602 3.110977
237.582031 3.022439
236.271484 3.015971
234.961914 2.948833
233.650391 2.864194
232.339844 2.803761
231.028320 2.715413
229.716797 2.691984
228.405273 2.656257
227.092773 2.603037
225.779297 2.529971
224.466797 2.509449
223.153320 2.406178
221.839844 2.333218
220.525391 2.274003
219.210938 2.242225
217.896484 2.191095
216.581055 2.164078
215.265625 2.049721
213.950195 2.017561
212.633789 1.979754
211.317383 1.897145
210.000977 1.852313
208.683594 1.783454
207.366211 1.734431
206.048828 1.699101
204.730469 1.686407
203.412109 1.643100
202.092773 1.606408
200.773438 1.586684
199.454102 1.520371
198.133789 1.518092
196.814453 1.487585
195.493164 1.487666
194.172852 1.448249
192.851563 1.482186
191.529297 1.462059
190.208008 1.457447
188.885742 1.498400
187.562500 1.530878
186.239258 1.547846
184.916016 1.542745
183.592773 1.582693
182.268555 1.628717
180.944336 1.655958
179.619141 1.657397
178.293945 1.718832
176.968750 1.756805
175.643555 1.793351
174.317383 1.842523
172.990234 1.869662
171.664063 1.894914
170.336914 1.925300
169.008789 1.981402
167.680664 1.950474
166.352539 1.982690
165.024414 1.968139
163.695313 1.978834
162.366211 1.982514
161.036133 1.999271
159.706055 2.016485
158.375977 2.043494
157.044922 2.092425
155.713867 2.138531
154.382813 2.134229
153.050781 2.206880
151.718750 2.284621
150.385742 2.353930
149.053711 2.454890
147.719727 2.508275
146.386719 2.542070
145.052734 2.606578
143.717773 2.611466
142.383789 2.720595
141.048828 2.779418
139.712891 2.780068
138.377930 2.912313
137.041016 2.893401
135.705078 2.882863
134.368164 2.900673
133.031250 2.948201
131.693359 2.938585
130.355469 2.967969
129.017578 2.937465
127.678711 2.855937
126.339844 2.848672
125.000977 2.799208
123.661133 2.753480
122.321289 2.717510
120.980469 2.655145
119.639648 2.617830
118.298828 2.582386
116.957031 2.579834
115.615234 2.597650
114.273438 2.599258
112.930664 2.576346
111.587891 2.534022
110.244141 2.491257
108.900391 2.512767
107.556641 2.448310
106.211914 2.334916
104.867188 2.181402
103.522461 2.065833
102.176758 1.846002
100.831055 1.658594
99.484375 1.414079
98.137695 1.199217
