3190.059570 0.011076
3189.352539 0.005537
3188.646484 0.012654
3187.939453 0.010280
3187.232422 0.006325
3186.525391 0.012648
3185.818359 0.011856
3185.111328 0.013435
3184.404297 0.014223
3183.696289 0.007900
3182.989258 0.014218
3182.281250 0.011057
3181.573242 0.008686
3180.865234 0.007106
3180.157227 0.009473
3179.449219 0.006314
3178.741211 0.004735
3178.033203 0.009468
3177.324219 0.017356
3176.616211 0.010254
3175.907227 0.011830
3175.198242 0.009462
3174.489258 0.012614
3173.780273 0.011036
3173.071289 0.006305
3172.362305 0.008668
3171.652344 0.006303
3170.943359 0.010241
3170.233398 0.013390
3169.523438 0.006300
3168.814453 0.010236
3168.104492 0.012596
3167.394531 0.013381
3166.683594 0.017314
3165.973633 0.007082
3165.263672 0.002360
3164.552734 0.011013
3163.841797 0.009438
3163.130859 0.007077
3162.420898 0.014152
3161.709961 0.007861
3160.998047 0.017292
3160.287109 0.007073
3159.576172 0.009429
3158.864258 0.003928
3158.153320 0.012568
3157.441406 0.014922
3156.729492 0.004711
3156.017578 0.010991
3155.305664 0.018839
3154.593750 0.010203
3153.880859 0.010201
3153.168945 0.012553
3152.456055 0.010982
3151.744141 0.008627
3151.031250 0.007058
3150.318359 0.010193
3149.605469 0.010975
3148.892578 0.012541
3148.178711 0.006269
3147.465820 0.011753
3146.751953 0.013318
3146.039063 0.008616
3145.325195 0.007832
3144.611328 0.011745
3143.897461 0.012526
3143.183594 0.014873
3142.468750 0.007826
3141.754883 0.012520
3141.041016 0.007041
3140.326172 0.012516
3139.611328 0.017207
3138.896484 0.005474
3138.181641 0.014855
3137.466797 0.007036
3136.751953 0.009379
3136.037109 0.007033
3135.321289 0.012501
3134.605469 0.017968
3133.890625 0.004686
3133.174805 0.001562
3132.458984 0.011712
3131.743164 0.012491
3131.027344 0.009367
3130.310547 0.012487
3129.594727 0.013265
3128.877930 0.013263
3128.161133 0.003900
3127.445313 0.017158
3126.728516 0.008577
3126.010742 0.012474
3125.293945 0.015590
3124.577148 0.005456
3123.859375 0.008572
3123.142578 0.010128
3122.424805 0.010906
3121.707031 0.012461
3120.989258 0.010123
3120.271484 0.009343
3119.553711 0.017904
3118.835938 0.014788
3118.117188 0.010116
3117.399414 0.004668
3116.680664 0.006223
3115.961914 0.010889
3115.243164 0.010109
3114.524414 0.013995
3113.805664 0.011661
3113.086914 0.011659
3112.367188 0.012434
3111.648438 0.015540
3110.928711 0.013983
3110.208984 0.009321
3109.489258 0.012425
3108.769531 0.013976
3108.049805 0.010869
3107.329102 0.010867
3106.609375 0.012417
3105.888672 0.013191
3105.168945 0.010861
3104.448242 0.012411
3103.727539 0.008531
3103.006836 0.018609
3102.285156 0.008528
3101.564453 0.013952
3100.843750 0.007750
3100.122070 0.010848
3099.400391 0.011621
3098.678711 0.006971
3097.957031 0.019361
3097.235352 0.009292
3096.513672 0.017806
3095.791992 0.010837
3095.069336 0.015478
3094.346680 0.015476
3093.625000 0.016247
3092.902344 0.013923
3092.179688 0.008507
3091.457031 0.016238
3090.733398 0.006185
3090.010742 0.014687
3089.287109 0.009274
3088.564453 0.016227
3087.840820 0.015452
3087.117188 0.011587
3086.393555 0.015446
3085.669922 0.006177
3084.946289 0.023161
3084.221680 0.010035
3083.498047 0.008489
3082.773438 0.016204
3082.048828 0.009258
3081.324219 0.016970
3080.599609 0.015425
3079.875000 0.013880
3079.149414 0.021587
3078.424805 0.011562
3077.699219 0.011560
3076.974609 0.015411
3076.249023 0.016179
3075.523438 0.007703
3074.797852 0.017713
3074.071289 0.013860
3073.345703 0.016167
3072.619141 0.016165
3071.893555 0.010774
3071.166992 0.013850
3070.440430 0.013848
3069.713867 0.014615
3068.987305 0.011536
3068.259766 0.013841
3067.533203 0.020757
3066.805664 0.009224
3066.079102 0.019213
3065.351563 0.011526
3064.624023 0.017670
3063.896484 0.013058
3063.168945 0.013824
3062.440430 0.012285
3061.712891 0.023799
3060.984375 0.019189
3060.255859 0.019953
3059.527344 0.006906
3058.798828 0.016110
3058.070313 0.019942
3057.341797 0.009969
3056.613281 0.016102
3055.883789 0.018399
3055.154297 0.011497
3054.424805 0.013794
3053.695313 0.016856
3052.965820 0.013023
3052.236328 0.014553
3051.506836 0.013018
3050.776367 0.023735
3050.046875 0.012248
3049.316406 0.020665
3048.585938 0.016070
3047.855469 0.011477
3047.125000 0.016064
3046.393555 0.017591
3045.663086 0.017588
3044.931641 0.018349
3044.201172 0.018346
3043.469727 0.013757
3042.738281 0.024452
3042.006836 0.017572
3041.275391 0.020624
3040.542969 0.016802
3039.811523 0.018326
3039.079102 0.014506
3038.346680 0.017556
3037.614258 0.012211
3036.881836 0.016024
3036.149414 0.016021
3035.416992 0.018306
3034.683594 0.027455
3033.951172 0.015250
3033.217773 0.015247
3032.484375 0.013720
3031.750977 0.019814
3031.017578 0.016001
3030.284180 0.020569
3029.549805 0.020565
3028.816406 0.016753
3028.082031 0.021319
3027.347656 0.015986
3026.613281 0.025878
3025.878906 0.015980
3025.144531 0.014456
3024.410156 0.024342
3023.674805 0.024338
3022.939453 0.019010
3022.205078 0.022048
3021.469727 0.012922
3020.734375 0.019000
3019.999023 0.014437
3019.262695 0.018993
3018.527344 0.018990
3017.791016 0.021264
3017.054688 0.022779
3016.318359 0.022775
3015.582031 0.026566
3014.845703 0.017455
3014.109375 0.023521
3013.373047 0.011379
3012.635742 0.019720
3011.898438 0.029575
3011.161133 0.026537
3010.424805 0.025016
3009.686523 0.019706
3008.949219 0.020460
3008.211914 0.024245
3007.473633 0.025755
3006.736328 0.023478
3005.998047 0.028775
3005.259766 0.027255
3004.521484 0.019681
3003.782227 0.023461
3003.043945 0.024213
3002.305664 0.024965
3001.566406 0.024961
3000.827148 0.024200
3000.087891 0.022683
2999.348633 0.024191
2998.609375 0.029477
2997.870117 0.026449
2997.129883 0.024933
2996.389648 0.033238
2995.650391 0.031722
2994.910156 0.022654
2994.169922 0.028690
2993.429688 0.019626
2992.688477 0.026415
2991.948242 0.033201
2991.207031 0.034704
2990.465820 0.027155
2989.725586 0.025641
2988.983398 0.031669
2988.242188 0.020355
2987.500977 0.031657
2986.759766 0.025622
2986.017578 0.021097
2985.275391 0.035406
2984.533203 0.038412
2983.791016 0.032381
2983.048828 0.031622
2982.306641 0.040649
2981.563477 0.039889
2980.821289 0.039129
2980.078125 0.027837
2979.334961 0.036106
2978.591797 0.045876
2977.848633 0.037596
2977.105469 0.042100
2976.361328 0.037582
2975.618164 0.042084
2974.874023 0.046584
2974.129883 0.040566
2973.385742 0.044314
2972.641602 0.051815
2971.897461 0.041294
2971.152344 0.040535
2970.408203 0.045031
2969.663086 0.061531
2968.917969 0.050266
2968.172852 0.059258
2967.427734 0.053247
2966.682617 0.054736
2965.936523 0.063722
2965.191406 0.063710
2964.445313 0.062949
2963.699219 0.057692
2962.953125 0.065173
2962.207031 0.061416
2961.460938 0.072637
2960.713867 0.069628
2959.967773 0.069615
2959.220703 0.067357
2958.473633 0.079317
2957.726563 0.056110
2956.979492 0.067319
2956.232422 0.068802
2955.484375 0.071032
2954.737305 0.071766
2953.989258 0.073995
2953.241211 0.071739
2952.493164 0.080691
2951.745117 0.079929
2950.997070 0.093358
2950.248047 0.079899
2949.500000 0.087350
2948.750977 0.085094
2948.001953 0.081347
2947.252930 0.076854
2946.503906 0.089522
2945.754883 0.080555
2945.004883 0.081285
2944.255859 0.089471
2943.505859 0.090945
2942.755859 0.081984
2942.005859 0.078988
2941.255859 0.082698
2940.504883 0.093856
2939.754883 0.081177
2939.003906 0.088608
2938.252930 0.092314
2937.502930 0.087086
2936.750977 0.087814
2936.000000 0.079612
2935.249023 0.091500
2934.497070 0.084045
2933.746094 0.089234
2932.994141 0.063196
2932.242188 0.081767
2931.490234 0.074319
2930.738281 0.083222
2929.985352 0.069834
2929.233398 0.080219
2928.480469 0.080947
2927.727539 0.085386
2926.974609 0.078689
2926.221680 0.076447
2925.468750 0.087564
2924.715820 0.072708
2923.961914 0.074178
2923.208008 0.073422
2922.455078 0.071184
2921.701172 0.073394
2920.946289 0.074122
2920.192383 0.074848
2919.438477 0.080021
2918.683594 0.073338
2917.928711 0.072584
2917.173828 0.071829
2916.418945 0.070335
2915.664063 0.076243
2914.909180 0.071788
2914.153320 0.073254
2913.398438 0.073240
2912.642578 0.073226
2911.886719 0.078389
2911.130859 0.076156
2910.375000 0.076141
2909.619141 0.074648
2908.862305 0.069461
2908.105469 0.074620
2907.349609 0.083469
2906.592773 0.076068
2905.835938 0.073100
2905.078125 0.075301
2904.321289 0.074548
2903.563477 0.081913
2902.806641 0.066404
2902.048828 0.067866
2901.291016 0.080391
2900.533203 0.072264
2899.774414 0.079623
2899.016602 0.075185
2898.257813 0.081066
2897.500000 0.081787
2896.741211 0.072932
2895.982422 0.075864
2895.222656 0.075113
2894.463867 0.083933
2893.705078 0.083917
2892.945313 0.066974
2892.185547 0.075055
2891.425781 0.075776
2890.666016 0.089001
2889.906250 0.087513
2889.146484 0.072791
2888.385742 0.080863
2887.625000 0.079378
2886.864258 0.070544
2886.103516 0.073470
2885.342773 0.091085
2884.582031 0.074910
2883.821289 0.079301
2883.059570 0.079286
2882.297852 0.079270
2881.536133 0.075586
2880.774414 0.085843
2880.012695 0.074089
2879.250977 0.079942
2878.488281 0.084327
2877.726563 0.080645
2876.963867 0.085760
2876.201172 0.075483
2875.438477 0.084261
2874.674805 0.084245
2873.912109 0.084961
2873.149414 0.095929
2872.385742 0.087857
2871.622070 0.086375
2870.858398 0.075381
2870.094727 0.094391
2869.330078 0.086325
2868.566406 0.083383
2867.801758 0.081904
2867.038086 0.088468
2866.273438 0.092106
2865.508789 0.078933
2864.743164 0.084032
2863.978516 0.090591
2863.212891 0.092765
2862.448242 0.083253
2861.682617 0.078856
2860.916992 0.087601
2860.151367 0.089773
2859.384766 0.103620
2858.619141 0.091927
2857.852539 0.088262
2857.086914 0.085327
2856.320313 0.083852
2855.553711 0.085294
2854.786133 0.087464
2854.019531 0.086718
2853.251953 0.091801
2852.485352 0.089598
2851.717773 0.087396
2850.950195 0.087378
2850.182617 0.088817
2849.414063 0.083705
2848.646484 0.104793
2847.877930 0.087310
2847.110352 0.094567
2846.341797 0.093094
2845.573242 0.089440
2844.803711 0.080699
2844.035156 0.077775
2843.266602 0.090114
2842.497070 0.078471
2841.727539 0.082088
2840.958008 0.081346
2840.188477 0.084234
2839.418945 0.085670
2838.648438 0.082750
2837.878906 0.074750
2837.108398 0.086345
2836.337891 0.074721
2835.567383 0.082685
2834.795898 0.089920
2834.025391 0.081927
2833.254883 0.092059
2832.483398 0.072473
2831.711914 0.069561
2830.940430 0.079689
2830.168945 0.081122
2829.397461 0.071692
2828.625000 0.073850
2827.852539 0.080350
2827.081055 0.083953
2826.308594 0.083937
2825.536133 0.067281
2824.762695 0.070161
2823.990234 0.068701
2823.216797 0.067241
2822.444336 0.067228
2821.670898 0.083115
2820.897461 0.060698
2820.123047 0.072245
2819.349609 0.071509
2818.576172 0.059940
2817.801758 0.070036
2817.027344 0.074354
2816.252930 0.062791
2815.478516 0.077211
2814.704102 0.067095
2813.928711 0.071410
2813.154297 0.065626
2812.378906 0.064892
2811.603516 0.071367
2810.828125 0.067749
2810.052734 0.067736
2809.276367 0.065561
2808.500977 0.066268
2807.724609 0.062654
2806.948242 0.063362
2806.171875 0.073428
2805.395508 0.060458
2804.619141 0.055409
2803.841797 0.058276
2803.064453 0.064019
2802.288086 0.061129
2801.510742 0.067588
2800.733398 0.068294
2799.955078 0.063249
2799.177734 0.069704
2798.399414 0.072564
2797.621094 0.051000
2796.842773 0.056735
2796.064453 0.053134
2795.286133 0.063173
2794.507813 0.059572
2793.728516 0.060996
2792.950195 0.055961
2792.170898 0.060971
2791.391602 0.068131
2790.611328 0.058796
2789.832031 0.053766
2789.052734 0.051605
2788.272461 0.061627
2787.492188 0.058032
2786.711914 0.063751
2785.931641 0.063022
2785.151367 0.050122
2784.370117 0.062997
2783.588867 0.050817
2782.808594 0.054385
2782.027344 0.053659
2781.246094 0.059370
2780.463867 0.067225
2779.682617 0.059347
2778.900391 0.056475
2778.119141 0.057893
2777.336914 0.062884
2776.554688 0.060728
2775.771484 0.065002
2774.989258 0.064989
2774.206055 0.059978
2773.423828 0.049971
2772.640625 0.060667
2771.857422 0.047097
2771.074219 0.064924
2770.290039 0.057777
2769.506836 0.054913
2768.722656 0.055615
2767.938477 0.060594
2767.154297 0.061295
2766.370117 0.053444
2765.585938 0.052721
2764.800781 0.060545
2764.016602 0.056973
2763.231445 0.050553
2762.446289 0.056238
2761.661133 0.046974
2760.875000 0.061196
2760.089844 0.049089
2759.303711 0.055481
2758.518555 0.054759
2757.732422 0.063280
2756.945313 0.049761
2756.159180 0.061122
2755.373047 0.051162
2754.585938 0.049731
2753.798828 0.051851
2753.012695 0.062493
2752.224609 0.052540
2751.437500 0.049690
2750.650391 0.063875
2749.862305 0.047542
2749.074219 0.058883
2748.287109 0.051778
2747.499023 0.061696
2746.709961 0.051757
2745.921875 0.058126
2745.132813 0.050319
2744.344727 0.062354
2743.555664 0.053132
2742.766602 0.054538
2741.977539 0.043905
2741.187500 0.060888
2740.398438 0.060168
2739.608398 0.048832
2738.818359 0.056605
2738.028320 0.052349
2737.238281 0.048095
2736.448242 0.057985
2735.657227 0.064336
2734.866211 0.063616
2734.075195 0.053003
2733.284180 0.056525
2732.493164 0.056513
2731.702148 0.058621
2730.910156 0.048017
2730.119141 0.057891
2729.327148 0.059291
2728.535156 0.053633
2727.743164 0.046567
2726.950195 0.050790
2726.158203 0.058537
2725.365234 0.054295
2724.572266 0.052874
2723.779297 0.055682
2722.986328 0.051443
2722.193359 0.050728
2721.399414 0.047195
2720.606445 0.061271
2719.812500 0.052809
2719.018555 0.061246
2718.224609 0.053491
2717.430664 0.046443
2716.635742 0.047137
2715.840820 0.049238
2715.046875 0.056964
2714.251953 0.051327
2713.456055 0.049911
2712.661133 0.051306
2711.866211 0.048485
2711.070313 0.054798
2710.274414 0.042144
2709.478516 0.050562
2708.682617 0.057573
2707.886719 0.040714
2707.089844 0.045618
2706.293945 0.055432
2705.497070 0.048405
2704.700195 0.043486
2703.903320 0.050489
2703.105469 0.046272
2702.308594 0.048366
2701.510742 0.049057
2700.712891 0.053951
2699.915039 0.049737
2699.117188 0.046925
2698.319336 0.056018
2697.520508 0.043405
2696.722656 0.046196
2695.923828 0.061582
2695.125000 0.046177
2694.326172 0.044069
2693.526367 0.049655
2692.727539 0.053840
2691.927734 0.053829
2691.127930 0.041936
2690.328125 0.048915
2689.528320 0.042617
2688.728516 0.049593
2687.927734 0.039806
2687.126953 0.051668
2686.326172 0.048865
2685.525391 0.047459
2684.724609 0.043960
2683.923828 0.049532
2683.122070 0.056497
2682.321289 0.042538
2681.519531 0.055776
2680.717773 0.052279
2679.915039 0.047390
2679.113281 0.034142
2678.310547 0.048067
2677.508789 0.052932
2676.706055 0.055707
2675.903320 0.050822
2675.099609 0.047331
2674.296875 0.051497
2673.493164 0.052877
2672.690430 0.057040
2671.886719 0.050073
2671.083008 0.059102
2670.278320 0.039625
2669.474609 0.053517
2668.669922 0.048642
2667.865234 0.047937
2667.060547 0.049316
2666.255859 0.048612
2665.451172 0.039576
2664.646484 0.049286
2663.840820 0.061074
2663.035156 0.056898
2662.229492 0.039542
2661.423828 0.056180
2660.618164 0.061716
2659.811523 0.055463
2659.004883 0.054759
2658.199219 0.051975
2657.391602 0.058200
2656.584961 0.057495
2655.778320 0.041554
2655.033203 0.052046
2654.970703 0.048470
2654.227539 0.056209
2654.164063 0.051229
2653.421875 0.057588
2653.356445 0.052602
2652.616211 0.045092
2652.548828 0.050515
2651.810547 0.056876
2651.740234 0.046353
2651.004883 0.052012
2650.932617 0.053261
2650.198242 0.052004
2650.124023 0.045642
2649.392578 0.044369
2649.316406 0.055313
2648.585938 0.049907
2648.507813 0.053918
2647.779297 0.054751
2647.699219 0.052525
2646.972656 0.044348
2646.889648 0.064260
2646.166016 0.051962
2646.081055 0.050430
2645.359375 0.051260
2645.271484 0.056636
2644.552734 0.058178
2644.461914 0.058005
2643.745117 0.052629
2643.652344 0.042114
2642.938477 0.060929
2642.842773 0.055910
2642.130859 0.048458
2642.033203 0.044856
2641.323242 0.051219
2641.222656 0.049677
2640.515625 0.045674
2640.413086 0.049666
2639.708008 0.048434
2639.602539 0.062070
2638.899414 0.050502
2638.791992 0.049645
2638.091797 0.049110
2637.981445 0.051014
2637.283203 0.048410
2637.169922 0.057206
2636.475586 0.055317
2636.359375 0.055127
2635.666992 0.051160
2635.547852 0.044781
2634.858398 0.049078
2634.736328 0.057858
2634.049805 0.053216
2633.924805 0.045451
2633.241211 0.050444
2633.113281 0.045441
2632.431641 0.048363
2632.300781 0.056445
2631.623047 0.053190
2631.489258 0.054368
2630.813477 0.049037
2630.676758 0.052293
2630.003906 0.058006
2629.864258 0.056409
2629.194336 0.051783
2629.051758 0.061212
2628.384766 0.064200
2628.238281 0.054322
2627.575195 0.061428
2627.425781 0.059811
2626.765625 0.051067
2626.612305 0.052237
2625.955078 0.052438
2625.798828 0.054975
2625.145508 0.060708
2624.985352 0.057712
2624.334961 0.056559
2624.171875 0.063881
2623.524414 0.053791
2623.358398 0.057000
2622.713867 0.052403
2622.543945 0.061108
2621.903320 0.063425
2621.729492 0.061781
2621.092773 0.052386
2620.916016 0.047356
2620.281250 0.053066
2620.100586 0.051462
2619.469727 0.045478
2619.286133 0.056254
2618.659180 0.055804
2618.471680 0.055556
2617.847656 0.061306
2617.656250 0.054858
2617.036133 0.055097
2616.840820 0.048676
2616.224609 0.048202
2616.025391 0.066487
2615.412109 0.055767
2615.209961 0.054138
2614.600586 0.057134
2614.394531 0.052071
2613.788086 0.054372
2613.578125 0.060965
2612.976563 0.057115
2612.762695 0.049994
2612.164063 0.053665
2611.946289 0.054092
2611.351563 0.052280
2611.129883 0.052711
2610.539063 0.053647
2610.312500 0.062966
2609.726563 0.055014
2609.496094 0.058163
2608.913086 0.057067
2608.678711 0.054045
2608.100586 0.061182
2607.862305 0.062242
2607.287109 0.063921
2607.044922 0.058809
2606.473633 0.062536
2606.227539 0.061531
2605.660156 0.059089
2605.409180 0.051265
2604.846680 0.052897
2604.591797 0.058088
2604.033203 0.059756
2603.773438 0.055343
2603.218750 0.057686
2602.955078 0.060112
2602.405273 0.065229
2602.136719 0.051904
2601.590820 0.059039
2601.318359 0.060769
2600.776367 0.061775
2600.500000 0.058026
2599.961914 0.062451
2599.680664 0.052553
2599.147461 0.062440
2598.861328 0.056636
2598.333008 0.061743
2598.042969 0.053895
2597.518555 0.061047
2597.222656 0.048427
2596.703125 0.063094
2596.403320 0.058645
2595.888672 0.057597
2595.583984 0.057269
2595.073242 0.065129
2594.763672 0.056575
2594.257813 0.056892
2593.943359 0.056563
2593.442383 0.050029
2593.123047 0.059957
2592.625977 0.060299
2592.302734 0.055857
2591.810547 0.062344
2591.482422 0.050397
2590.994141 0.066443
2590.661133 0.051748
2590.178711 0.064377
2589.839844 0.059906
2589.362305 0.058888
2589.018555 0.055809
2588.545898 0.062301
2588.197266 0.059199
2587.729492 0.058868
2587.375977 0.062588
2586.913086 0.061595
2586.554688 0.052372
2586.095703 0.060900
2585.732422 0.055081
2585.279297 0.064310
2584.910156 0.057788
2584.461914 0.043778
2584.087891 0.060495
2583.644531 0.060868
2583.265625 0.055045
2582.827148 0.052652
2582.443359 0.060469
2582.009766 0.061531
2581.620117 0.059776
2581.192383 0.054001
2580.796875 0.059084
2580.374023 0.056042
2579.973633 0.060429
2579.556641 0.060816
2579.150391 0.055664
2578.738281 0.060122
2578.327148 0.058367
2577.919922 0.052598
2577.503906 0.055640
2577.101563 0.056003
2576.679688 0.056306
2576.283203 0.052579
2575.855469 0.052225
2575.464844 0.057349
2575.031250 0.056960
2574.645508 0.050513
2574.207031 0.056270
2573.827148 0.053917
2573.381836 0.063035
2573.007813 0.062096
2572.557617 0.054212
2572.188477 0.066861
2571.732422 0.041328
2571.369141 0.060028
2570.907227 0.050802
2570.549805 0.055243
2570.082031 0.065012
2569.730469 0.058643
2569.256836 0.059581
2568.910156 0.053178
2568.430664 0.052799
2568.090820 0.058622
2567.605469 0.046020
2567.270508 0.057931
2566.779297 0.063602
2566.450195 0.064053
2565.953125 0.049382
2565.629883 0.060635
2565.125977 0.059516
2564.809570 0.057219
2564.299805 0.055446
2563.989258 0.063338
2563.472656 0.059490
2563.167969 0.057199
2562.646484 0.056774
2562.346680 0.055146
2561.819336 0.051355
2561.526367 0.050372
2560.992188 0.045939
2560.705078 0.060571
2560.164063 0.062815
2559.883789 0.053076
2559.336914 0.056724
2559.061523 0.054427
2558.508789 0.068864
2558.240234 0.059859
2557.680664 0.066824
2557.417969 0.054408
2556.852539 0.062085
2556.596680 0.056438
2556.024414 0.052626
2555.774414 0.052349
2555.195313 0.055312
2554.952148 0.059137
2554.367188 0.058672
2554.129883 0.067282
2553.538086 0.057985
2553.307617 0.052321
2552.708984 0.058646
2552.484375 0.057067
2551.878906 0.055264
2551.662109 0.060454
2551.049805 0.057273
2550.838867 0.054331
2550.219727 0.055239
2550.015625 0.059074
2549.390625 0.060615
2549.192383 0.062458
2548.560547 0.060602
2548.369141 0.052944
2547.730469 0.059915
2547.544922 0.052256
2546.899414 0.055191
2546.721680 0.069888
2546.069336 0.066618
2545.897461 0.062414
2545.238281 0.065258
2545.074219 0.056298
2544.407227 0.055827
2544.250000 0.068495
2543.576172 0.057159
2543.425781 0.069161
2542.745117 0.057819
2542.600586 0.069826
2541.913086 0.063183
2541.776367 0.055580
2541.082031 0.058465
2540.951172 0.065735
2540.250000 0.049718
2540.126953 0.052850
2539.417969 0.061798
2539.301758 0.061647
2538.585938 0.067828
2538.476563 0.055540
2537.752930 0.062442
2537.651367 0.062979
2536.920898 0.051688
2536.826172 0.062968
2536.087891 0.056374
2536.000000 0.062280
2535.254883 0.062400
2535.174805 0.059561
2534.421875 0.063728
2534.348633 0.062257
2533.587891 0.053654
2533.522461 0.055480
2532.754883 0.061017
2532.696289 0.064941
2531.920898 0.054300
2531.870117 0.068311
2531.086914 0.063671
2531.042969 0.056126
2530.252930 0.067007
2530.216797 0.068962
2529.418945 0.068332
2529.389648 0.069626
2528.583984 0.058940
2528.562500 0.061503
2527.749023 0.062945
2527.735352 0.060816
2526.914063 0.060253
2526.908203 0.062832
2526.081055 0.066932
2526.079102 0.051337
2525.253906 0.070932
2525.244141 0.062809
2524.425781 0.057536
2524.409180 0.066174
2523.597656 0.060199
2523.573242 0.068187
2522.769531 0.060075
2522.737305 0.056173
2521.941406 0.069513
2521.901367 0.058166
2521.113281 0.072199
2521.065430 0.068848
2520.285156 0.069487
2520.228516 0.067496
2519.456055 0.064753
2519.392578 0.068817
2518.627930 0.069462
2518.555664 0.064125
2517.798828 0.057313
2517.718750 0.062775
2516.969727 0.062021
2516.881836 0.060758
2516.140625 0.064032
2516.043945 0.076098
2515.311523 0.065368
2515.207031 0.059396
2514.481445 0.064682
2514.369141 0.062052
2513.651367 0.069386
2513.531250 0.072044
2512.822266 0.060618
2512.693359 0.068026
2511.992188 0.059933
2511.855469 0.072678
2511.162109 0.066655
2511.016602 0.063329
2510.332031 0.062604
2510.177734 0.065980
2509.500977 0.069323
2509.338867 0.059302
2508.670898 0.062581
2508.500000 0.059955
2507.839844 0.059206
2507.661133 0.064604
2507.008789 0.069285
2506.821289 0.068584
2506.177734 0.068600
2505.982422 0.068569
2505.346680 0.071277
2505.142578 0.061897
2504.515625 0.057818
2504.302734 0.071865
2503.683594 0.064529
2503.461914 0.070518
2502.852539 0.067205
2502.622070 0.055869
2502.020508 0.067865
2501.781250 0.064501
2501.188477 0.062478
2500.940430 0.067810
2500.356445 0.071198
2500.099609 0.061148
2499.524414 0.073200
2499.258789 0.072431
2498.691406 0.066472
2498.416992 0.052484
2497.859375 0.069145
2497.576172 0.072398
2497.026367 0.061078
2496.734375 0.070389
2496.193359 0.067106
2495.892578 0.065062
2495.360352 0.067094
2495.050781 0.065711
2494.527344 0.065740
2494.208008 0.076314
2493.694336 0.068411
2493.365234 0.072979
2492.860352 0.071751
2492.523438 0.066993
2492.027344 0.073079
2491.680664 0.068304
2491.193359 0.058318
2490.836914 0.080222
2490.359375 0.065679
2489.994141 0.062307
2489.525391 0.070358
2489.150391 0.070245
2488.691406 0.076374
2488.306641 0.070891
2487.856445 0.066313
2487.462891 0.069550
2487.022461 0.070988
2486.619141 0.078805
2486.187500 0.068297
2485.775391 0.070842
2485.352539 0.076318
2484.930664 0.070164
2484.517578 0.068272
2484.085938 0.066839
2483.682617 0.070936
2483.241211 0.067485
2482.846680 0.068915
2482.396484 0.074085
2482.011719 0.064889
2481.550781 0.065470
2481.175781 0.071565
2480.706055 0.068100
2480.339844 0.070883
2479.860352 0.071389
2479.503906 0.068864
2479.014648 0.079303
2478.667969 0.078210
2478.168945 0.073338
2477.832031 0.072849
2477.322266 0.068037
2476.995117 0.072835
2476.476563 0.068021
2476.158203 0.074826
2475.629883 0.068006
2475.322266 0.065460
2474.783203 0.060069
2474.485352 0.073462
2473.936523 0.071274
2473.647461 0.063433
2473.088867 0.070598
2472.810547 0.071432
2472.242188 0.069922
2471.973633 0.076758
2471.394531 0.067927
2471.135742 0.077411
2470.546875 0.071208
2470.297852 0.066054
2469.698242 0.071191
2469.459961 0.077382
2468.850586 0.072493
2468.622070 0.072699
2468.001953 0.058640
2467.784180 0.071352
2467.153320 0.063896
2466.946289 0.074005
2466.304688 0.067832
2466.107422 0.085323
2465.456055 0.071108
2465.268555 0.071312
2464.607422 0.067801
2464.429688 0.068633
2463.757813 0.067785
2463.590820 0.070619
2462.908203 0.069743
2462.751953 0.079265
2462.058594 0.074989
2461.913086 0.063933
2461.208984 0.072341
2461.073242 0.076572
2460.358398 0.067721
2460.233398 0.078554
2459.508789 0.063762
2459.394531 0.076543
2458.658203 0.072947
2458.554688 0.068543
2457.807617 0.071616
2457.713867 0.074518
2456.956055 0.065687
2456.874023 0.074504
2456.105469 0.066329
2456.033203 0.074490
2455.253906 0.074848
2455.193359 0.080461
2454.402344 0.066954
2454.352539 0.071138
2453.550781 0.063001
2453.511719 0.073118
2452.699219 0.072171
2452.670898 0.071111
2451.846680 0.066907
2451.829102 0.068440
2450.995117 0.067547
2450.988281 0.067762
2450.146484 0.066220
2450.142578 0.065757
2449.304688 0.066204
2449.290039 0.074378
2448.462891 0.056358
2448.436523 0.065732
2447.621094 0.068375
2447.583984 0.074035
2446.779297 0.077654
2446.730469 0.075982
2445.937500 0.064368
2445.876953 0.061557
2445.094727 0.061702
2445.023438 0.064816
2444.251953 0.068323
2444.169922 0.067419
2443.409180 0.068310
2443.315430 0.061514
2442.566406 0.075591
2442.460938 0.069350
2441.723633 0.067621
2441.606445 0.065409
2440.879883 0.068271
2440.751953 0.066701
2440.037109 0.072235
2439.897461 0.075185
2439.193359 0.067583
2439.041992 0.073860
2438.349609 0.068233
2438.186523 0.056198
2437.505859 0.077492
2437.331055 0.080358
2436.662109 0.068207
2436.475586 0.071194
2435.817383 0.065545
2435.619141 0.069218
2434.973633 0.074800
2434.763672 0.069202
2434.128906 0.065520
2433.907227 0.085503
2433.284180 0.066170
2433.050781 0.061991
2432.439453 0.070126
2432.194336 0.069152
2431.593750 0.076727
2431.336914 0.069136
2430.749023 0.063487
2430.479492 0.073684
2429.903320 0.064136
2429.622070 0.057368
2429.058594 0.068090
2428.764648 0.067131
2428.212891 0.064772
2427.907227 0.060599
2427.367188 0.079958
2427.048828 0.071659
2426.520508 0.064747
2426.191406 0.059267
2425.674805 0.064735
2425.333008 0.059904
2424.828125 0.071327
2424.473633 0.055984
2423.982422 0.054145
2423.615234 0.061177
2423.135742 0.060737
2422.755859 0.067018
2422.289063 0.060065
2421.897461 0.061148
2421.441406 0.064673
2421.038086 0.070888
2420.594727 0.074558
2420.177734 0.063719
2419.747070 0.062669
2419.318359 0.064353
2418.900391 0.071891
2418.458008 0.066937
2418.052734 0.067921
2417.597656 0.065622
2417.205078 0.064611
2416.737305 0.063008
2416.356445 0.063940
2415.876953 0.069487
2415.508789 0.069859
2415.015625 0.062328
2414.660156 0.066551
2414.155273 0.070102
2413.812500 0.073785
2413.293945 0.070085
2412.963867 0.072453
2412.115234 0.069147
2411.266602 0.070450
2410.416992 0.065829
2409.568359 0.074372
2408.718750 0.064487
2407.869141 0.060527
2407.019531 0.071040
2406.169922 0.076288
2405.319336 0.067725
2404.469727 0.063768
2403.619141 0.069671
2402.768555 0.069000
2401.917969 0.067016
2401.066406 0.073572
2400.215820 0.065020
2399.364258 0.063694
2398.513672 0.070247
2397.662109 0.071546
2396.810547 0.075470
2395.958008 0.062332
2395.106445 0.063632
2394.253906 0.067555
2393.402344 0.067542
2392.549805 0.070152
2391.697266 0.070138
2390.843750 0.059638
2389.991211 0.069455
2389.137695 0.067477
2388.284180 0.069429
2387.430664 0.067450
2386.577148 0.070711
2385.723633 0.071352
2384.869141 0.064139
2384.015625 0.070670
2383.161133 0.074581
2382.306641 0.075221
2381.452148 0.077168
2380.597656 0.064730
2379.742188 0.069294
2378.886719 0.063398
2378.032227 0.071227
2377.176758 0.060107
2376.320313 0.071199
2375.464844 0.071185
2374.609375 0.060071
2373.752930 0.070505
2372.896484 0.077018
2372.040039 0.073088
2371.183594 0.070464
2370.326172 0.075016
2369.469727 0.074349
2368.612305 0.073683
2367.754883 0.063889
2366.897461 0.067136
2366.040039 0.062561
2365.182617 0.064503
2364.324219 0.070353
2363.465820 0.061873
2362.607422 0.066419
2361.749023 0.073567
2360.890625 0.068996
2360.031250 0.067031
2359.172852 0.068969
2358.313477 0.073510
2357.454102 0.068942
2356.594727 0.072180
2355.735352 0.082568
2354.875000 0.073452
2354.015625 0.080586
2353.155273 0.079271
2352.294922 0.073409
2351.434570 0.068848
2350.573242 0.077925
2349.712891 0.066873
2348.851563 0.080491
2347.990234 0.077230
2347.128906 0.072673
2346.267578 0.073956
2345.406250 0.075239
2344.543945 0.066794
2343.681641 0.071967
2342.819336 0.061582
2341.957031 0.064162
2341.094727 0.074517
2340.232422 0.070615
2339.369141 0.073192
2338.505859 0.073177
2337.642578 0.075753
2336.779297 0.066675
2335.916016 0.066662
2335.051758 0.071825
2334.188477 0.074399
2333.324219 0.071797
2332.459961 0.076956
2331.595703 0.075001
2330.730469 0.078865
2329.866211 0.071094
2329.000977 0.085942
2328.135742 0.076234
2327.270508 0.069760
2326.405273 0.071683
2325.540039 0.074252
2324.673828 0.080047
2323.807617 0.082612
2322.941406 0.077434
2322.075195 0.069031
2321.208984 0.079983
2320.341797 0.084482
2319.475586 0.082530
2318.608398 0.077357
2317.741211 0.072830
2316.874023 0.085059
2316.005859 0.081176
2315.138672 0.076651
2314.270508 0.066332
2313.402344 0.081128
2312.534180 0.072743
2311.666016 0.070798
2310.797852 0.074001
2309.928711 0.073343
2309.059570 0.085550
2308.190430 0.081031
2307.321289 0.083586
2306.452148 0.083570
2305.582031 0.079697
2304.712891 0.078396
2303.842773 0.073883
2302.972656 0.080291
2302.102539 0.068073
2301.231445 0.073839
2300.361328 0.075750
2299.490234 0.087287
2298.619141 0.066094
2297.748047 0.076987
2296.876953 0.071199
2296.004883 0.073750
2295.133789 0.080147
2294.261719 0.079490
2293.389648 0.078833
2292.517578 0.083303
2291.645508 0.080083
2290.772461 0.064053
2289.899414 0.083253
2289.027344 0.086437
2288.153320 0.080018
2287.280273 0.083202
2286.407227 0.080626
2285.533203 0.081889
2284.660156 0.074837
2283.786133 0.079938
2282.911133 0.085037
2282.037109 0.086938
2281.163086 0.077333
2280.288086 0.077957
2279.413086 0.085607
2278.538086 0.084313
2277.663086 0.075994
2276.787109 0.086194
2275.912109 0.081708
2275.036133 0.080416
2274.160156 0.079123
2273.284180 0.082935
2272.408203 0.086107
2271.531250 0.073336
2270.655273 0.075234
2269.778320 0.077768
2268.901367 0.096235
2268.024414 0.075188
2267.146484 0.086640
2266.269531 0.078343
2265.391602 0.087242
2264.513672 0.075764
2263.635742 0.076385
2262.757813 0.086553
2261.878906 0.082081
2261.000000 0.095424
2260.122070 0.088408
2259.243164 0.077580
2258.363281 0.082650
2257.484375 0.087083
2256.604492 0.085795
2255.725586 0.078788
2254.845703 0.085125
2253.965820 0.096540
2253.084961 0.089535
2252.205078 0.087612
2251.324219 0.094577
2250.443359 0.085038
2249.562500 0.088193
2248.681641 0.076757
2247.800781 0.089426
2246.918945 0.091944
2246.037109 0.082416
2245.155273 0.089371
2244.273438 0.086818
2243.391602 0.082999
2242.509766 0.076014
2241.626953 0.075999
2240.744141 0.081049
2239.861328 0.077867
2238.978516 0.078484
2238.094727 0.089859
2237.211914 0.098065
2236.328125 0.089190
2235.444336 0.085377
2234.560547 0.080301
2233.675781 0.087871
2232.791992 0.084061
2231.907227 0.086571
2231.022461 0.090344
2230.137695 0.092221
2229.252930 0.080835
2228.368164 0.089026
2227.482422 0.082695
2226.596680 0.082047
2225.710938 0.090865
2224.825195 0.097155
2223.938477 0.082628
2223.052734 0.078827
2222.166016 0.090790
2221.279297 0.086359
2220.392578 0.089493
2219.505859 0.095775
2218.618164 0.095126
2217.731445 0.095106
2216.843750 0.087530
2215.956055 0.081216
2215.068359 0.084347
2214.179688 0.089994
2213.291016 0.084312
2212.403320 0.087440
2211.514648 0.081133
2210.625977 0.086776
2209.736328 0.091787
2208.847656 0.087369
2207.958008 0.092378
2207.068359 0.087333
2206.178711 0.088571
2205.289063 0.085413
2204.398438 0.080372
2203.507813 0.095422
2202.618164 0.091637
2201.727539 0.080322
2200.835938 0.091599
2199.945313 0.094089
2199.053711 0.090934
2198.162109 0.084645
2197.270508 0.088389
2196.378906 0.085864
2195.487305 0.088353
2194.594727 0.088334
2193.703125 0.090822
2192.810547 0.090177
2191.917969 0.090784
2191.024414 0.095147
2190.131836 0.087617
2189.238281 0.085096
2188.344727 0.088207
2187.451172 0.101323
2186.557617 0.081917
2185.664063 0.084401
2184.769531 0.088759
2183.875000 0.096240
2182.980469 0.092471
2182.085938 0.089329
2181.191406 0.091184
2180.295898 0.085545
2179.400391 0.087400
2178.504883 0.081141
2177.609375 0.098597
2176.713867 0.092961
2175.817383 0.090447
2174.921875 0.089804
2174.025391 0.096644
2173.128906 0.086027
2172.231445 0.091618
2171.334961 0.091599
2170.437500 0.087219
2169.540039 0.082218
2168.642578 0.086560
2167.745117 0.092768
2166.847656 0.089637
2165.949219 0.092730
2165.050781 0.095821
2164.152344 0.090203
2163.253906 0.084586
2162.354492 0.095140
2161.456055 0.085173
2160.556641 0.088263
2159.657227 0.095080
2158.757813 0.092575
2157.858398 0.095041
2156.958008 0.089432
2156.057617 0.087550
2155.157227 0.101189
2154.256836 0.094962
2153.356445 0.101147
2152.456055 0.089959
2151.554688 0.093662
2150.653320 0.091782
2149.751953 0.099203
2148.850586 0.092983
2147.948242 0.098541
2147.045898 0.088607
2146.144531 0.096022
2145.242188 0.089808
2144.338867 0.089790
2143.436523 0.081722
2142.533203 0.097799
2141.629883 0.109536
2140.726563 0.084765
2139.823242 0.094026
2138.919922 0.100191
2138.015625 0.110681
2137.111328 0.096439
2136.207031 0.103218
2135.302734 0.101961
2134.398438 0.103175
2133.493164 0.097594
2132.588867 0.092015
2131.683594 0.100023
2130.778320 0.093829
2129.872070 0.087637
2128.966797 0.101811
2128.060547 0.091919
2127.154297 0.094983
2126.248047 0.091264
2125.341797 0.102958
2124.434570 0.106635
2123.527344 0.099834
2122.620117 0.102893
2121.712891 0.102255
2120.805664 0.092996
2119.897461 0.099749
2118.990234 0.107731
2118.082031 0.092937
2117.173828 0.107071
2116.265625 0.097204
2115.356445 0.090418
2114.447266 0.105158
2113.539063 0.108825
2112.628906 0.108187
2111.719727 0.097102
2110.810547 0.104455
2109.900391 0.100132
2108.990234 0.104410
2108.080078 0.102546
2107.169922 0.085335
2106.258789 0.096979
2105.348633 0.101867
2104.437500 0.102459
2103.526367 0.099371
2102.615234 0.111002
2101.703125 0.101781
2100.791992 0.109116
2099.879883 0.101738
2098.967773 0.112133
2098.055664 0.099244
2097.142578 0.101673
2096.230469 0.102264
2095.317383 0.104691
2094.404297 0.104057
2093.490234 0.111990
2092.577148 0.104013
2091.663086 0.096650
2090.750000 0.099687
2089.835938 0.105781
2088.920898 0.117373
2088.006836 0.108180
2087.091797 0.105102
2086.177734 0.095916
2085.262695 0.103836
2084.346680 0.101371
2083.431641 0.101960
2082.515625 0.097665
2081.600586 0.108629
2080.684570 0.100674
2079.767578 0.100043
2078.851563 0.104901
2077.934570 0.110976
2077.017578 0.101198
2076.100586 0.113976
2075.183594 0.099327
2074.266602 0.104179
2073.348633 0.105375
2072.430664 0.116923
2071.512695 0.104112
2070.594727 0.104090
2069.676758 0.099808
2068.757813 0.108305
2067.838867 0.105848
2066.919922 0.124071
2066.000977 0.119180
2065.082031 0.105780
2064.162109 0.092994
2063.242188 0.106342
2062.322266 0.111180
2061.402344 0.105689
2060.481445 0.108703
2059.561523 0.111108
2058.640625 0.100158
2057.719727 0.112274
2056.798828 0.106182
2055.876953 0.101307
2054.956055 0.112202
2054.034180 0.112784
2053.112305 0.113972
2052.189453 0.113948
2051.267578 0.112105
2050.344727 0.115110
2049.421875 0.109028
2048.499023 0.105371
2047.576172 0.114430
2046.652344 0.108958
2045.729492 0.108934
2044.805664 0.110726
2043.881836 0.111912
2042.957031 0.101001
2042.033203 0.108840
2041.108398 0.120303
2040.183594 0.109397
2039.258789 0.109978
2038.333984 0.115995
2037.408203 0.122010
2036.483398 0.114134
2035.557617 0.121958
2034.630859 0.106237
2033.705078 0.117077
2032.778320 0.106794
2031.852539 0.115216
2030.925781 0.105638
2030.818359 0.113382
2029.999023 0.104431
2029.892578 0.112151
2029.071289 0.118898
2028.965820 0.122978
2028.144531 0.120085
2028.040039 0.115719
2027.216797 0.112221
2027.113281 0.096412
2026.289063 0.114012
2026.186523 0.107234
2025.361328 0.111580
2025.260742 0.103597
2024.432617 0.119401
2024.333008 0.116221
2023.503906 0.112748
2023.406250 0.116797
2022.576172 0.107906
2022.479492 0.114966
2021.647461 0.114518
2021.551758 0.113136
2020.717773 0.108472
2020.624023 0.113111
2019.789063 0.109056
2019.696289 0.105868
2018.859375 0.107230
2018.768555 0.119076
2017.929688 0.118656
2017.840820 0.117847
2017.000000 0.117431
2016.913086 0.123232
2016.070313 0.114401
2015.984375 0.109382
2015.139648 0.113779
2015.055664 0.110560
2014.209961 0.106537
2014.126953 0.124953
2013.279297 0.114944
2013.198242 0.117118
2012.348633 0.116729
2012.269531 0.114090
2011.416992 0.116709
2011.340820 0.120669
2010.486328 0.114884
2010.411133 0.117041
2009.554688 0.120879
2009.482422 0.120616
2008.623047 0.117851
2008.552734 0.123589
2007.691406 0.110016
2007.623047 0.120563
2006.759766 0.115406
2006.692383 0.113340
2005.827148 0.114184
2005.762695 0.116313
2004.894531 0.104551
2004.833008 0.112092
2003.961914 0.111141
2003.902344 0.121656
2003.029297 0.114125
2002.971680 0.122228
2002.096680 0.128519
2002.041016 0.123999
2001.163086 0.120090
2001.110352 0.130559
2000.229492 0.112265
2000.178711 0.113166
1999.295898 0.115847
1999.248047 0.122121
1998.362305 0.125429
1998.316406 0.123890
1997.427734 0.105006
1997.384766 0.117879
1996.494141 0.121786
1996.453125 0.122639
1995.559570 0.118165
1995.521484 0.119621
1994.625000 0.118145
1994.589844 0.122585
1993.689453 0.108530
1993.657227 0.114786
1992.754883 0.106713
1992.724609 0.114163
1991.819336 0.122279
1991.792969 0.119516
1990.883789 0.112069
1990.860352 0.123672
1989.948242 0.119240
1989.926758 0.124242
1989.012695 0.119818
1988.994141 0.115854
1988.076172 0.108416
1988.061523 0.135531
1987.139648 0.110793
1987.127930 0.108640
1986.203125 0.122150
1986.194336 0.124132
1985.266602 0.111951
1985.260742 0.119331
1984.330078 0.124501
1984.327148 0.114533
1983.392578 0.108920
1983.392578 0.112122
1982.458984 0.119671
1982.455078 0.121041
1981.524414 0.119650
1981.517578 0.118630
1980.589844 0.122619
1980.580078 0.124563
1979.655273 0.116019
1979.641602 0.115002
1978.720703 0.115999
1978.703125 0.113189
1977.786133 0.114185
1977.765625 0.112569
1976.850586 0.108785
1976.826172 0.125048
1975.915039 0.123108
1975.887695 0.122044
1974.979492 0.116514
1974.948242 0.122612
1974.043945 0.123662
1974.009766 0.121990
1973.108398 0.129613
1973.070313 0.120178
1972.172852 0.122424
1972.130859 0.119556
1971.236328 0.120611
1971.190430 0.121909
1970.299805 0.130738
1970.250000 0.124854
1969.363281 0.126537
1969.310547 0.115316
1968.426758 0.130691
1968.370117 0.127176
1967.490234 0.114558
1967.428711 0.125365
1966.553711 0.132434
1966.488281 0.127713
1965.616211 0.113324
1965.546875 0.125309
1964.678711 0.106744
1964.605469 0.124094
1963.741211 0.124612
1963.664063 0.132970
1962.803711 0.122802
1962.722656 0.124632
1961.866211 0.130528
1961.780273 0.120451
1960.928711 0.117990
1960.837891 0.119830
1959.990234 0.127502
1959.895508 0.123362
1959.051758 0.126288
1958.953125 0.134601
1958.113281 0.125669
1958.010742 0.124493
1957.174805 0.125647
1957.067383 0.132170
1956.236328 0.123838
1956.124023 0.126807
1955.296875 0.120839
1955.180664 0.136850
1954.357422 0.135697
1954.237305 0.120235
1953.418945 0.135077
1953.292969 0.127906
1952.479492 0.133863
1952.349609 0.124918
1951.539063 0.111830
1951.405273 0.127849
1950.599609 0.124299
1950.460938 0.127229
1949.660156 0.121303
1949.515625 0.144949
1948.719727 0.136144
1948.571289 0.126580
1947.779297 0.135525
1947.625977 0.128326
1946.838867 0.137284
1946.680664 0.130662
1945.898438 0.128940
1945.735352 0.135952
1944.957031 0.129511
1944.789063 0.143604
1944.016602 0.141367
1943.842773 0.131164
1943.075195 0.131839
1942.896484 0.135861
1942.133789 0.121721
1941.950195 0.142326
1941.192383 0.127636
1941.003906 0.126352
1940.250977 0.132954
1940.056641 0.112747
1939.308594 0.129369
1939.110352 0.139869
1938.366211 0.142399
1938.163086 0.139838
1937.424805 0.122204
1937.215820 0.130958
1936.482422 0.139975
1936.267578 0.135646
1935.539063 0.129868
1935.319336 0.134436
1934.596680 0.136959
1934.372070 0.130279
1933.654297 0.122707
1933.422852 0.140859
1932.710938 0.117943
1932.474609 0.131399
1931.767578 0.131551
1931.526367 0.136082
1930.824219 0.140414
1930.577148 0.131340
1929.880859 0.117878
1929.627930 0.140142
1928.936523 0.135624
1928.678711 0.135990
1927.993164 0.144481
1927.728516 0.133605
1927.048828 0.117813
1926.779297 0.124159
1926.104492 0.130222
1925.829102 0.134132
1925.160156 0.136116
1924.878906 0.129985
1924.215820 0.133133
1923.928711 0.127603
1923.270508 0.134883
1922.977539 0.135805
1922.326172 0.141956
1922.026367 0.141064
1921.380859 0.120049
1921.075195 0.140444
1920.435547 0.127713
1920.124023 0.143349
1919.490234 0.133010
1919.172852 0.142729
1918.543945 0.138305
1918.220703 0.137999
1917.598633 0.130597
1917.268555 0.132097
1916.652344 0.155388
1916.316406 0.137349
1915.706055 0.138819
1915.364258 0.135557
1914.759766 0.136431
1914.411133 0.135527
1913.813477 0.129319
1913.458984 0.135496
1912.866211 0.135199
1912.505859 0.145434
1911.919922 0.130452
1911.552734 0.137193
1910.972656 0.145182
1910.598633 0.131886
1910.025391 0.135124
1909.645508 0.147678
1909.078125 0.138049
1908.691406 0.135341
1908.129883 0.130355
1907.737305 0.135310
1907.182617 0.141536
1906.782227 0.141135
1906.234375 0.147995
1905.828125 0.143445
1905.286133 0.135588
1904.873047 0.142827
1904.337891 0.124953
1903.917969 0.131089
1903.389648 0.144966
1902.962891 0.143346
1902.440430 0.134334
1902.006836 0.138049
1901.492188 0.130185
1901.051758 0.137432
1900.542969 0.135461
1900.095703 0.138570
1899.593750 0.134847
1899.139648 0.142045
1898.644531 0.135999
1898.183594 0.141428
1897.695313 0.138329
1897.226563 0.133800
1896.745117 0.128298
1896.269531 0.137858
1895.794922 0.135923
1895.312500 0.137243
1894.844727 0.120602
1894.355469 0.134875
1893.894531 0.132931
1893.398438 0.140682
1892.944336 0.129966
1892.440430 0.149403
1891.994141 0.135233
1891.482422 0.147618
1891.042969 0.139323
1890.524414 0.142334
1890.091797 0.145174
1889.566406 0.132970
1889.140625 0.139270
1888.607422 0.148099
1888.189453 0.147469
1887.648438 0.134658
1887.238281 0.142742
1886.689453 0.148614
1886.286133 0.143890
1885.730469 0.147414
1885.334961 0.143276
1884.770508 0.126991
1884.382813 0.140313
1883.811523 0.142686
1883.430664 0.142048
1882.851563 0.128097
1882.477539 0.142021
1881.891602 0.145531
1881.525391 0.140234
1880.930664 0.151899
1880.572266 0.142554
1879.970703 0.159428
1879.619141 0.134902
1879.009766 0.137285
1878.666016 0.140741
1878.048828 0.133183
1877.712891 0.139541
1877.086914 0.140129
1876.759766 0.142446
1876.125977 0.154629
1875.805664 0.139488
1875.164063 0.142388
1874.852539 0.135360
1874.202148 0.137126
1873.898438 0.150567
1873.240234 0.151617
1872.943359 0.133552
1872.277344 0.144031
1871.989258 0.148167
1871.315430 0.146901
1871.035156 0.135257
1870.352539 0.138159
1870.080078 0.139915
1869.389648 0.147413
1869.125000 0.145156
1868.425781 0.137514
1868.169922 0.138106
1867.462891 0.147344
1867.214844 0.143931
1866.499023 0.153689
1866.258789 0.131619
1865.535156 0.150174
1865.303711 0.129839
1864.570313 0.147240
1864.347656 0.134492
1863.606445 0.157058
1863.391602 0.149667
1862.641602 0.150648
1862.435547 0.146132
1861.676758 0.148875
1861.479492 0.141428
1860.711914 0.134974
1860.522461 0.145944
1859.746094 0.148385
1859.565430 0.145910
1858.781250 0.148356
1858.608398 0.158611
1857.815430 0.144240
1857.651367 0.148735
1856.849609 0.147132
1856.694336 0.152750
1855.882813 0.148271
1855.736328 0.142880
1854.916992 0.145324
1854.779297 0.145160
1853.950195 0.138294
1853.821289 0.154377
1852.983398 0.152269
1852.863281 0.147982
1852.015625 0.144074
1851.905273 0.148525
1851.048828 0.137631
1850.946289 0.164668
1850.081055 0.140520
1849.988281 0.151921
1849.113281 0.146906
1849.029297 0.142645
1848.145508 0.148043
1848.070313 0.157623
1847.176758 0.163166
1847.111328 0.148350
1846.208008 0.156143
1846.151367 0.163319
1845.239258 0.151453
1845.192383 0.147703
1844.270508 0.153171
1844.232422 0.159781
1843.301758 0.150230
1843.272461 0.151093
1842.332031 0.160680
1842.312500 0.152787
1841.362305 0.155410
1841.352539 0.157938
1840.392578 0.163528
1840.391602 0.165392
1839.430664 0.152441
1839.422852 0.165353
1838.470703 0.162883
1838.452148 0.175106
1837.508789 0.171575
1837.481445 0.156060
1836.547852 0.169216
1836.510742 0.159478
1835.586914 0.166858
1835.540039 0.166347
1834.625000 0.162175
1834.568359 0.156525
1833.663086 0.160982
1833.597656 0.171446
1832.701172 0.176058
1832.625000 0.169104
1831.739258 0.158596
1831.653320 0.167914
1830.777344 0.160888
1830.681641 0.168448
1829.814453 0.164341
1829.708984 0.179904
1828.851563 0.180566
1828.736328 0.179861
1827.888672 0.181692
1827.763672 0.173498
1826.925781 0.179335
1826.790039 0.182646
1825.962891 0.187424
1825.817383 0.159634
1824.999023 0.181006
1824.843750 0.171651
1824.035156 0.177490
1823.869141 0.177350
1823.071289 0.173976
1822.895508 0.173291
1822.107422 0.179740
1821.920898 0.157760
1821.143555 0.155358
1820.947266 0.175501
1820.178711 0.168079
1819.971680 0.167432
1819.214844 0.170943
1818.997070 0.171978
1818.250000 0.168592
1818.021484 0.172509
1817.285156 0.166822
1817.046875 0.164446
1816.319336 0.167368
1816.070313 0.166125
1815.354492 0.162124
1815.094727 0.168949
1814.388672 0.153409
1814.119141 0.159174
1813.422852 0.158010
1813.142578 0.156846
1812.457031 0.163187
1812.166016 0.163676
1811.491211 0.156212
1811.188477 0.161348
1810.525391 0.166015
1810.211914 0.165313
1809.558594 0.170609
1809.234375 0.164129
1808.591797 0.165372
1808.256836 0.170378
1807.625000 0.158402
1807.279297 0.161763
1806.658203 0.183225
1806.300781 0.161153
1805.690430 0.169898
1805.322266 0.153115
1804.723633 0.170442
1804.343750 0.160503
1803.755859 0.163477
1803.365234 0.157609
1802.788086 0.155936
1802.386719 0.164422
1801.820313 0.154751
1801.407227 0.159816
1800.851563 0.166267
1800.427734 0.171189
1799.883789 0.174892
1799.448242 0.165443
1798.915039 0.162162
1798.467773 0.168254
1797.946289 0.173669
1797.488281 0.168213
1796.977539 0.165559
1796.507813 0.180144
1796.007813 0.174754
1795.527344 0.168131
1795.039063 0.171837
1794.545898 0.170369
1794.069336 0.169497
1793.564453 0.169758
1793.099609 0.166005
1792.583008 0.178260
1792.129883 0.191905
1791.601563 0.170814
1791.160156 0.187834
1790.620117 0.161664
1790.189453 0.177428
1789.637695 0.181543
1789.218750 0.177969
1788.655273 0.176378
1788.248047 0.176782
1787.672852 0.183730
1787.277344 0.176747
1786.690430 0.174586
1786.306641 0.173258
1785.707031 0.179091
1785.334961 0.169771
1784.723633 0.167679
1784.364258 0.183547
1783.740234 0.175025
1783.392578 0.169704
1782.756836 0.185777
1782.420898 0.173121
1781.772461 0.174371
1781.448242 0.178837
1780.788086 0.176600
1780.476563 0.174777
1779.803711 0.174853
1779.503906 0.181066
1778.819336 0.174243
1778.531250 0.177581
1777.833984 0.180441
1777.558594 0.179270
1776.848633 0.175291
1776.585938 0.169468
1775.863281 0.184889
1775.612305 0.175753
1774.877930 0.187679
1774.638672 0.172846
1773.891602 0.173461
1773.666016 0.182572
1772.905273 0.174551
1772.691406 0.192294
1771.918945 0.190939
1771.717773 0.187665
1770.931641 0.192791
1770.744141 0.174465
1769.945313 0.182427
1769.769531 0.180651
1768.958008 0.191567
1768.794922 0.171547
1767.970703 0.195543
1767.820313 0.189051
1766.982422 0.185758
1766.845703 0.192966
1765.995117 0.190880
1765.870117 0.182169
1765.006836 0.182245
1764.894531 0.196829
1764.018555 0.185074
1763.919922 0.180947
1763.029297 0.199358
1762.944336 0.191078
1762.041016 0.186718
1761.967773 0.194986
1761.051758 0.188399
1760.992188 0.196633
1760.062500 0.186643
1760.015625 0.189240
1759.072266 0.199771
1759.039063 0.193146
1758.083008 0.203165
1758.062500 0.197050
1757.092773 0.191681
1757.085938 0.193050
1756.108398 0.178485
1756.101563 0.183972
1755.131836 0.184741
1755.111328 0.198595
1754.154297 0.200715
1754.120117 0.192340
1753.176758 0.186954
1753.128906 0.195112
1752.198242 0.193204
1751.220703 0.200595
1750.242188 0.189127
1749.263672 0.204513
1748.285156 0.189051
1747.306641 0.190155
1746.327148 0.186120
1745.348633 0.196928
1744.369141 0.197459
1743.389648 0.198561
1742.409180 0.185400
1741.429688 0.195629
1740.449219 0.188177
1739.468750 0.186999
1738.488281 0.195511
1737.507813 0.189203
1736.526367 0.188595
1735.544922 0.200520
1734.563477 0.200479
1733.582031 0.198730
1732.600586 0.192428
1731.618164 0.197512
1730.636719 0.202024
1729.654297 0.194018
1728.671875 0.200805
1727.688477 0.199627
1726.706055 0.205842
1725.722656 0.210916
1724.739258 0.192117
1723.755859 0.200034
1722.771484 0.187494
1721.788086 0.202793
1720.803711 0.192529
1719.819336 0.201575
1718.834961 0.187342
1717.850586 0.207737
1716.865234 0.200885
1715.879883 0.195171
1714.894531 0.195698
1713.909180 0.205300
1712.923828 0.205825
1711.937500 0.206350
1710.951172 0.203474
1709.964844 0.191533
1708.978516 0.198859
1707.991211 0.207881
1707.004883 0.202176
1706.017578 0.205532
1705.030273 0.214547
1704.042969 0.214504
1703.054688 0.209367
1702.066406 0.201404
1701.078125 0.209847
1700.089844 0.203019
1699.101563 0.214285
1698.113281 0.233461
1697.124023 0.218719
1696.134766 0.209633
1695.145508 0.215240
1694.155273 0.209548
1693.166016 0.225316
1692.175781 0.200993
1691.185547 0.217886
1690.195313 0.211634
1689.205078 0.211026
1688.213867 0.232420
1687.222656 0.223348
1686.231445 0.212588
1685.240234 0.217055
1684.249023 0.209119
1683.256836 0.225419
1682.264648 0.203962
1681.272461 0.206737
1680.280273 0.211763
1679.287109 0.220729
1678.294922 0.202106
1677.301758 0.215573
1676.308594 0.209901
1675.315430 0.213234
1674.321289 0.216565
1673.327148 0.227206
1672.333008 0.224348
1671.338867 0.227112
1670.344727 0.221445
1669.349609 0.234324
1668.355469 0.209556
1667.360352 0.226925
1666.365234 0.212839
1665.369141 0.228516
1664.374023 0.229030
1663.377930 0.225054
1662.381836 0.214347
1661.384766 0.227766
1660.388672 0.229402
1659.391602 0.237205
1658.395508 0.218655
1657.397461 0.228699
1656.400391 0.229773
1655.403320 0.217399
1654.405273 0.226317
1653.407227 0.243632
1652.409180 0.239662
1651.411133 0.226736
1650.412109 0.226129
1649.413086 0.219367
1648.414063 0.225476
1647.415039 0.245008
1646.416016 0.241601
1645.416016 0.247143
1644.416016 0.243737
1643.416016 0.242569
1642.416016 0.258165
1641.415039 0.239116
1640.415039 0.264760
1639.414063 0.247952
1638.413086 0.254042
1637.411133 0.236126
1636.410156 0.244449
1635.408203 0.248862
1634.406250 0.245463
1633.404297 0.246527
1632.402344 0.242015
1631.399414 0.257575
1630.396484 0.256407
1629.393555 0.259140
1628.390625 0.269672
1627.387695 0.256803
1626.383789 0.256750
1625.379883 0.257253
1624.375977 0.269447
1623.372070 0.259372
1622.367188 0.270448
1621.362305 0.263715
1620.357422 0.275341
1619.352539 0.271947
1618.347656 0.268554
1617.341797 0.274612
1616.335938 0.261216
1615.330078 0.263940
1614.324219 0.276107
1613.318359 0.280493
1612.311523 0.279323
1611.304688 0.267606
1610.297852 0.286977
1609.291016 0.282478
1608.283203 0.266883
1607.275391 0.280695
1606.267578 0.293947
1605.259766 0.280023
1604.251953 0.295487
1603.243164 0.282123
1602.234375 0.277076
1601.225586 0.267045
1600.216797 0.275852
1599.207031 0.266933
1598.198242 0.284595
1597.188477 0.280660
1596.178711 0.254036
1595.167969 0.288842
1594.158203 0.284356
1593.147461 0.284849
1592.136719 0.283130
1591.125977 0.261509
1590.114258 0.268087
1589.103516 0.269136
1588.091797 0.266316
1587.080078 0.273994
1586.067383 0.256263
1585.055664 0.257865
1584.042969 0.274925
1583.030273 0.274867
1582.017578 0.275913
1581.003906 0.283027
1579.991211 0.259248
1578.977539 0.267466
1577.963867 0.278437
1576.949219 0.254674
1575.935547 0.278870
1574.920898 0.270546
1573.906250 0.265531
1572.891602 0.250604
1571.876953 0.268172
1570.861328 0.267014
1569.845703 0.264756
1568.830078 0.256996
1567.814453 0.245387
1566.797852 0.258537
1565.782227 0.240334
1564.765625 0.257878
1563.749023 0.248478
1562.731445 0.256669
1561.714844 0.253318
1560.697266 0.245573
1559.679688 0.233437
1558.662109 0.249313
1557.643555 0.260240
1556.625000 0.233837
1555.607422 0.263423
1554.587891 0.256783
1553.569336 0.255082
1552.549805 0.236929
1551.531250 0.242911
1550.511719 0.251082
1549.491211 0.253769
1548.471680 0.241660
1547.451172 0.260236
1546.430664 0.251416
1545.410156 0.240410
1544.389648 0.246382
1543.368164 0.249614
1542.346680 0.250108
1541.325195 0.247319
1540.303711 0.247813
1539.282227 0.242838
1538.259766 0.247161
1537.237305 0.259135
1536.214844 0.257440
1535.191406 0.247549
1534.168945 0.242033
1533.145508 0.245258
1532.122070 0.249029
1531.098633 0.233142
1530.074219 0.242372
1529.050781 0.241774
1528.026367 0.243905
1527.000977 0.236761
1525.976563 0.251437
1524.951172 0.243204
1523.926758 0.260597
1522.901367 0.243099
1521.875000 0.251767
1520.849609 0.251168
1519.823242 0.263643
1518.796875 0.246159
1517.770508 0.246106
1516.743164 0.253675
1515.716797 0.257430
1514.689453 0.256831
1513.662109 0.258952
1512.634766 0.248018
1511.606445 0.263735
1510.578125 0.245193
1509.549805 0.247315
1508.521484 0.259217
1507.493164 0.254272
1506.463867 0.261279
1505.434570 0.256335
1504.405273 0.261166
1503.375977 0.262739
1502.345703 0.258340
1501.315430 0.253944
1500.285156 0.261484
1499.254883 0.250580
1498.223633 0.268421
1497.193359 0.253183
1496.162109 0.260717
1495.130859 0.263912
1494.098633 0.263855
1493.067383 0.254048
1492.035156 0.258868
1491.002930 0.255563
1489.969727 0.259297
1488.937500 0.255994
1487.904297 0.266220
1486.871094 0.268867
1485.837891 0.252583
1484.803711 0.259018
1483.770508 0.258962
1482.736328 0.265392
1481.702148 0.264794
1480.666992 0.261495
1479.632813 0.245774
1478.597656 0.268943
1477.562500 0.261865
1476.527344 0.262348
1475.491211 0.257974
1474.455078 0.271947
1473.418945 0.262718
1472.382813 0.272908
1471.346680 0.268535
1470.309570 0.258234
1469.272461 0.267341
1468.235352 0.260816
1467.198242 0.276384
1466.160156 0.268244
1465.122070 0.257415
1464.083984 0.273512
1463.045898 0.280988
1462.006836 0.269088
1460.968750 0.276024
1459.929688 0.273274
1458.889648 0.264072
1457.850586 0.279608
1456.810547 0.280622
1455.771484 0.283786
1454.730469 0.274052
1453.690430 0.277215
1452.649414 0.288435
1451.609375 0.290520
1450.568359 0.285625
1449.526367 0.280195
1448.485352 0.290867
1447.443359 0.291876
1446.401367 0.294495
1445.359375 0.300330
1444.316406 0.276136
1443.274414 0.309312
1442.231445 0.305493
1441.188477 0.300068
1440.144531 0.325181
1439.101563 0.316005
1438.057617 0.310045
1437.013672 0.314260
1435.968750 0.306163
1434.924805 0.321080
1433.879883 0.323149
1432.834961 0.334847
1431.790039 0.341191
1430.744141 0.359295
1429.698242 0.338903
1428.653320 0.354327
1427.606445 0.359593
1426.560547 0.353104
1425.513672 0.373321
1424.466797 0.359890
1423.419922 0.359811
1422.373047 0.353328
1421.325195 0.354317
1420.277344 0.350505
1419.229492 0.346694
1418.181641 0.334887
1417.132813 0.350274
1416.084961 0.330475
1415.036133 0.329337
1413.986328 0.348445
1412.937500 0.336117
1411.887695 0.334445
1410.837891 0.339163
1409.788086 0.353461
1408.738281 0.356044
1407.687500 0.359158
1406.636719 0.356951
1405.585938 0.346236
1404.534180 0.361048
1403.483398 0.352994
1402.431641 0.347601
1401.379883 0.378345
1400.327148 0.347979
1399.275391 0.335155
1398.222656 0.355260
1397.169922 0.339785
1396.117188 0.337056
1395.063477 0.356616
1394.009766 0.335846
1392.956055 0.352746
1391.902344 0.334106
1390.848633 0.350999
1389.793945 0.340319
1388.739258 0.344484
1387.684570 0.356064
1386.628906 0.345391
1385.574219 0.358025
1384.518555 0.365888
1383.462891 0.343043
1382.406250 0.384250
1381.350586 0.365645
1380.293945 0.395719
1379.237305 0.381879
1378.179688 0.392899
1377.123047 0.386996
1376.065430 0.404353
1375.007813 0.381540
1373.949219 0.387267
1372.891602 0.416760
1371.833008 0.420364
1370.774414 0.393872
1369.715820 0.389561
1368.656250 0.392113
1367.596680 0.374087
1366.537109 0.380333
1365.477539 0.368646
1364.417969 0.352746
1363.357422 0.361101
1362.296875 0.353642
1361.236328 0.357252
1360.174805 0.341895
1359.113281 0.348665
1358.052734 0.352800
1356.990234 0.346404
1355.928711 0.341590
1354.866211 0.343618
1353.803711 0.329863
1352.741211 0.337153
1351.678711 0.343913
1350.615234 0.336476
1349.551758 0.338503
1348.488281 0.343157
1347.424805 0.343080
1346.360352 0.335124
1345.295898 0.352904
1344.231445 0.340224
1343.166992 0.351171
1342.101563 0.341121
1341.036133 0.344193
1339.970703 0.346738
1338.905273 0.348234
1337.838867 0.348680
1336.772461 0.353319
1335.706055 0.348523
1334.639648 0.364688
1333.572266 0.355176
1332.504883 0.347764
1331.437500 0.371249
1330.370117 0.383206
1329.302734 0.377886
1328.234375 0.376231
1327.166016 0.378762
1326.096680 0.361939
1325.028320 0.373885
1323.958984 0.385825
1322.889648 0.364830
1321.820313 0.354819
1320.750000 0.353694
1319.679688 0.385999
1318.609375 0.375467
1317.539063 0.351366
1316.468750 0.352853
1315.397461 0.335030
1314.326172 0.358432
1313.254883 0.345310
1312.182617 0.343146
1311.142578 0.345154
1311.110352 0.350746
1310.069336 0.341948
1310.038086 0.338238
1308.997070 0.323110
1308.965820 0.350162
1307.923828 0.344398
1307.892578 0.330303
1306.851563 0.321921
1306.820313 0.325556
1305.778320 0.319765
1305.747070 0.339559
1304.704102 0.325420
1304.672852 0.330646
1303.630859 0.339921
1303.599609 0.330066
1302.557617 0.318506
1302.525391 0.327925
1301.483398 0.323117
1301.451172 0.317457
1300.409180 0.324084
1300.376953 0.324165
1299.334961 0.333892
1299.301758 0.338153
1298.259766 0.322377
1298.227539 0.318846
1297.185547 0.319704
1297.152344 0.330750
1296.110352 0.327051
1296.076172 0.312875
1295.035156 0.329071
1295.000977 0.316960
1293.959961 0.338367
1293.924805 0.325719
1292.883789 0.320637
1292.848633 0.338629
1291.808594 0.319021
1291.772461 0.329206
1290.732422 0.328314
1290.695313 0.323420
1289.656250 0.328773
1289.618164 0.346183
1288.580078 0.330791
1288.541016 0.318084
1287.502930 0.333327
1287.463867 0.337725
1286.426758 0.341053
1286.386719 0.349577
1285.349609 0.335282
1285.308594 0.339645
1284.272461 0.344042
1284.230469 0.343196
1283.195313 0.333603
1283.152344 0.334825
1282.118164 0.328874
1282.073242 0.318684
1281.040039 0.316366
1280.994141 0.318611
1279.961914 0.331865
1279.915039 0.318021
1278.883789 0.315732
1278.835938 0.318466
1277.805664 0.311528
1277.755859 0.297684
1276.727539 0.318726
1276.676758 0.309003
1275.648438 0.320741
1275.596680 0.298583
1274.569336 0.304622
1274.515625 0.309896
1273.490234 0.305084
1273.435547 0.300515
1272.411133 0.306064
1272.354492 0.287518
1271.332031 0.294616
1271.273438 0.299860
1270.251953 0.308539
1270.191406 0.298757
1269.171875 0.288814
1269.110352 0.306957
1268.091797 0.302733
1268.028320 0.301720
1267.011719 0.301125
1266.946289 0.294419
1265.931641 0.299518
1265.864258 0.297450
1264.850586 0.321703
1264.781250 0.300479
1263.769531 0.303544
1263.698242 0.294216
1262.688477 0.281773
1262.615234 0.294148
1261.607422 0.303949
1261.532227 0.294596
1260.526367 0.298207
1260.448242 0.292981
1259.444336 0.296602
1259.364258 0.306322
1258.362305 0.300163
1258.280273 0.292331
1257.280273 0.284611
1257.196289 0.294325
1256.198242 0.303150
1256.111328 0.276736
1255.115234 0.290702
1255.026367 0.298826
1254.033203 0.305103
1253.941406 0.290516
1252.950195 0.290077
1252.856445 0.294053
1251.867188 0.282799
1251.770508 0.283688
1250.783203 0.296677
1250.684570 0.275387
1249.700195 0.286304
1249.598633 0.283557
1248.616211 0.273357
1248.511719 0.282977
1247.532227 0.291354
1247.425781 0.275196
1246.448242 0.297486
1246.338867 0.283360
1245.364258 0.292791
1245.250977 0.281752
1244.279297 0.287067
1244.164063 0.287855
1243.195313 0.298350
1243.076172 0.281108
1242.110352 0.294172
1241.988281 0.284639
1241.024414 0.291026
1240.900391 0.285600
1239.939453 0.296637
1239.812500 0.289642
1238.853516 0.293492
1238.723633 0.287521
1237.768555 0.292407
1237.634766 0.287455
1236.682617 0.294411
1236.544922 0.303297
1235.595703 0.308249
1235.456055 0.284756
1234.509766 0.303046
1234.366211 0.282638
1233.422852 0.305047
1233.276367 0.292829
1232.336914 0.290074
1232.186523 0.288659
1231.250000 0.293105
1231.095703 0.294230
1230.162109 0.286366
1230.004883 0.278275
1229.075195 0.291452
1228.914063 0.282309
1227.987305 0.293452
1227.823242 0.285316
1226.899414 0.290827
1226.731445 0.272447
1225.811523 0.304643
1225.639648 0.286719
1224.723633 0.271713
1224.547852 0.279486
1223.634766 0.275256
1223.456055 0.269186
1222.546875 0.282905
1222.363281 0.271681
1221.458008 0.273611
1221.270508 0.264456
1220.368164 0.297682
1220.177734 0.281782
1219.279297 0.270428
1219.084961 0.293476
1218.189453 0.300134
1217.991211 0.294940
1217.100586 0.309309
1216.897461 0.272386
1216.010742 0.286685
1215.803711 0.273344
1214.919922 0.293296
1214.708984 0.280942
1213.830078 0.296829
1213.614258 0.289557
1212.739258 0.306511
1212.519531 0.296127
1211.648438 0.304402
1211.424805 0.307287
1210.557617 0.317153
1210.329102 0.301091
1209.466797 0.332972
1209.234375 0.309184
1208.375977 0.302179
1208.138672 0.315742
1207.284180 0.320555
1207.041992 0.317708
1206.192383 0.316398
1205.946289 0.308966
1205.100586 0.328622
1204.849609 0.306854
1204.007813 0.310135
1203.752930 0.303724
1202.916016 0.309564
1202.655273 0.311295
1201.823242 0.305923
1201.558594 0.314787
1200.730469 0.301261
1200.460938 0.318278
1199.637695 0.306317
1199.362305 0.317694
1198.543945 0.312904
1198.264648 0.316092
1197.451172 0.322557
1197.166016 0.303295
1196.357422 0.317895
1196.067383 0.307294
1195.263672 0.317322
1194.968750 0.327567
1194.168945 0.319304
1193.870117 0.318845
1193.075195 0.338653
1192.770508 0.340122
1191.980469 0.342673
1191.670898 0.326318
1190.885742 0.351797
1190.570313 0.335896
1189.791016 0.336414
1189.470703 0.332261
1188.696289 0.341963
1188.370117 0.329642
1187.600586 0.338325
1187.269531 0.322963
1186.504883 0.318872
1186.167969 0.327963
1185.409180 0.326971
1185.067383 0.296416
1184.313477 0.333538
1183.965820 0.310555
1183.216797 0.304919
1182.864258 0.287144
1182.121094 0.298742
1181.761719 0.295698
1181.024414 0.299193
1180.659180 0.280923
1179.927734 0.303722
1179.556641 0.294544
1178.830078 0.291944
1178.454102 0.282817
1177.733398 0.280680
1177.351563 0.297951
1176.635742 0.279098
1176.248047 0.277616
1175.538086 0.269877
1175.144531 0.266408
1174.440430 0.274916
1174.040039 0.266344
1173.341797 0.262137
1172.936523 0.265774
1172.243164 0.278879
1171.832031 0.261156
1171.145508 0.282387
1170.727539 0.265648
1170.045898 0.282840
1169.622070 0.271655
1168.947266 0.261932
1168.517578 0.286763
1167.848633 0.274085
1167.412109 0.267986
1166.749023 0.275048
1166.306641 0.280054
1165.649414 0.266352
1165.200195 0.277460
1164.549805 0.272399
1164.093750 0.276889
1163.449219 0.282507
1162.987305 0.276822
1162.348633 0.268228
1161.880859 0.272211
1161.249023 0.271222
1160.773438 0.263057
1160.147461 0.291481
1159.666016 0.270566
1159.046875 0.268069
1158.558594 0.281099
1157.946289 0.284767
1157.451172 0.266905
1156.844727 0.278621
1156.342773 0.277938
1155.743164 0.286685
1155.234375 0.271315
1154.641602 0.282570
1154.125977 0.277804
1153.539063 0.282514
1153.017578 0.271689
1152.436523 0.277387
1151.908203 0.279183
1151.334961 0.282909
1150.798828 0.287177
1150.231445 0.278798
1149.689453 0.287611
1149.128906 0.292427
1148.579102 0.285024
1148.026367 0.274634
1147.468750 0.288480
1146.922852 0.290285
1146.358398 0.289417
1145.819336 0.282123
1145.248047 0.282302
1144.715820 0.288650
1144.136719 0.293302
1143.611328 0.291125
1143.025391 0.283675
1142.506836 0.300685
1141.914063 0.287629
1141.403320 0.288478
1140.801758 0.274992
1140.297852 0.298541
1139.689453 0.284977
1139.193359 0.291399
1138.577148 0.276869
1138.088867 0.298928
1137.464844 0.281323
1136.983398 0.285721
1136.351563 0.293811
1135.877930 0.291225
1135.239258 0.282191
1134.771484 0.303299
1134.125000 0.279111
1133.666016 0.293131
1133.011719 0.266496
1132.559570 0.280440
1131.897461 0.280481
1131.453125 0.269775
1130.783203 0.275898
1130.346680 0.283864
1129.668945 0.283855
1129.240234 0.274717
1128.553711 0.281279
1128.132813 0.281226
1127.439453 0.288229
1127.025391 0.297828
1126.324219 0.265106
1125.917969 0.285151
1125.208008 0.275062
1124.810547 0.281057
1124.092773 0.275496
1123.702148 0.279487
1122.976563 0.270421
1122.594727 0.281953
1121.859375 0.271356
1121.486328 0.274332
1120.743164 0.281301
1120.377930 0.288394
1119.625977 0.280732
1119.268555 0.291361
1118.508789 0.282164
1118.159180 0.286263
1117.391602 0.281095
1117.050781 0.295275
1116.273438 0.289527
1115.940430 0.294208
1115.155273 0.285457
1114.831055 0.286594
1114.037109 0.288886
1113.721680 0.299126
1112.918945 0.281320
1112.611328 0.285975
1111.799805 0.275256
1111.500977 0.282897
1110.680664 0.294167
1110.389648 0.302971
1109.561523 0.282611
1109.279297 0.296369
1108.441406 0.278548
1108.167969 0.289266
1107.321289 0.295947
1107.056641 0.282669
1106.201172 0.286894
1105.945313 0.299207
1105.081055 0.267868
1104.833984 0.280544
1103.959961 0.285257
1103.721680 0.292551
1102.838867 0.282195
1102.609375 0.290482
1101.717773 0.298575
1101.497070 0.288916
1100.595703 0.284548
1100.384766 0.282829
1099.473633 0.274514
1099.271484 0.280763
1098.351563 0.291879
1098.158203 0.271667
1097.229492 0.295293
1097.044922 0.276130
1096.106445 0.282276
1095.931641 0.283604
1094.983398 0.268271
1094.818359 0.281539
1093.860352 0.257755
1093.704102 0.284492
1092.737305 0.262168
1092.589844 0.274402
1091.613281 0.273543
1091.475586 0.270333
1090.489258 0.262536
1090.360352 0.257742
1089.364258 0.264957
1089.246094 0.260197
1088.240234 0.269364
1088.130859 0.258139
1087.115234 0.266316
1087.015625 0.266105
1085.989258 0.256812
1085.900391 0.254026
1084.864258 0.251782
1084.784180 0.259985
1083.738281 0.255195
1083.667969 0.261435
1082.612305 0.253643
1082.551758 0.256875
1081.486328 0.256557
1081.435547 0.256822
1080.359375 0.242602
1080.318359 0.259273
1079.232422 0.251470
1079.202148 0.255717
1078.105469 0.255374
1078.084961 0.253663
1076.977539 0.252832
1076.966797 0.250610
1075.849609 0.255247
1075.849609 0.238056
1074.731445 0.255183
1074.721680 0.235507
1073.613281 0.241249
1073.593750 0.262454
1072.495117 0.236732
1072.464844 0.246906
1071.376953 0.247356
1071.335938 0.240138
1070.257813 0.238312
1070.207031 0.245029
1069.138672 0.243258
1069.077148 0.239029
1068.019531 0.251199
1067.948242 0.236000
1066.900391 0.245156
1066.817383 0.232479
1065.781250 0.235121
1065.687500 0.249234
1064.661133 0.237069
1064.556641 0.246700
1063.541016 0.237021
1063.425781 0.226373
1062.419922 0.246451
1062.294922 0.235211
1061.299805 0.240914
1061.163086 0.233670
1060.178711 0.246848
1060.032227 0.236080
1059.057617 0.240316
1058.899414 0.243921
1057.936523 0.251732
1057.767578 0.243366
1056.815430 0.245699
1056.634766 0.224058
1055.693359 0.241662
1055.501953 0.241764
1054.571289 0.235136
1054.369141 0.233811
1053.449219 0.250528
1053.235352 0.243615
1052.327148 0.242011
1052.101563 0.236158
1051.204102 0.242459
1050.967773 0.255321
1050.081055 0.251369
1049.833984 0.238995
1048.958008 0.244349
1048.699219 0.250266
1047.834961 0.246787
1047.564453 0.254143
1046.710938 0.244746
1046.428711 0.255063
1045.586914 0.254642
1045.293945 0.246138
1044.462891 0.258070
1044.158203 0.248044
1043.338867 0.246583
1043.021484 0.245029
1042.213867 0.244046
1041.885742 0.239556
1041.089844 0.253935
1040.749023 0.257691
1039.964844 0.253882
1039.612305 0.260576
1038.838867 0.261280
1038.474609 0.255103
1037.713867 0.255267
1037.337891 0.248650
1036.587891 0.256703
1036.200195 0.260377
1035.461914 0.250197
1035.061523 0.267187
1034.335938 0.270990
1033.923828 0.252388
1033.209961 0.264979
1032.785156 0.266069
1032.083008 0.261451
1031.646484 0.278762
1030.956055 0.268837
1030.506836 0.268877
1029.829102 0.273244
1029.367188 0.257036
1028.701172 0.272692
1028.227539 0.279529
1027.574219 0.262225
1027.087891 0.278477
1026.446289 0.281995
1025.947266 0.270073
1025.318359 0.280945
1024.806641 0.273924
1024.189453 0.270979
1023.666016 0.272384
1023.061523 0.272903
1022.524414 0.268397
1021.932617 0.287207
1021.382813 0.269307
1020.803711 0.276255
1020.241211 0.245741
1019.674805 0.277682
1019.098633 0.263296
1018.544922 0.272676
1017.957031 0.269100
1017.415039 0.283504
1016.813477 0.274411
1016.285156 0.264647
1015.670898 0.267983
1015.155273 0.280912
1014.527344 0.250314
1014.024414 0.276404
1013.383789 0.267357
1012.894531 0.261515
1012.240234 0.253606
1011.763672 0.281230
1011.095703 0.260380
1010.631836 0.272277
1009.951172 0.261289
1009.500977 0.286053
1008.806641 0.262198
1008.369141 0.269693
1007.662109 0.256761
1007.237305 0.274575
1006.516602 0.245958
1006.105469 0.271061
1005.371094 0.250286
1004.972656 0.262119
1004.224609 0.257537
1003.840820 0.270948
1003.079102 0.261372
1002.708008 0.271878
1001.932617 0.256429
1001.575195 0.279221
1000.785156 0.255388
1000.441406 0.266338
999.638672 0.264092
999.307617 0.275158
998.491211 0.256229
998.173828 0.286933
997.342773 0.253241
997.040039 0.277014
996.195313 0.266808
995.906250 0.267100
995.046875 0.260410
994.771484 0.251770
993.898438 0.249637
993.636719 0.287184
992.749023 0.254437
992.501953 0.268409
991.599609 0.242698
991.367188 0.277215
990.450195 0.245066
990.231445 0.251066
989.300781 0.253752
989.095703 0.267747
987.959961 0.274580
986.824219 0.268618
985.687500 0.269545
984.550781 0.265063
983.414063 0.261073
982.277344 0.277240
981.139648 0.259980
980.001953 0.276631
978.864258 0.254467
977.726563 0.267182
976.587891 0.269090
975.449219 0.283761
974.310547 0.267504
973.171875 0.267447
972.032227 0.270334
970.893555 0.267824
969.752930 0.275614
968.613281 0.283891
967.473633 0.283831
966.333008 0.284751
965.192383 0.291550
964.050781 0.287569
962.910156 0.272325
961.768555 0.278633
960.626953 0.278084
959.485352 0.290262
958.342773 0.279434
957.200195 0.274482
956.057617 0.271488
954.915039 0.269474
953.771484 0.261105
952.628906 0.265938
951.485352 0.255617
950.340820 0.258983
949.197266 0.273096
948.052734 0.261803
946.908203 0.259794
945.762695 0.289033
944.618164 0.274815
943.472656 0.264996
942.327148 0.264451
941.181641 0.267322
940.035156 0.268728
938.888672 0.275497
937.742188 0.288113
936.595703 0.268555
935.448242 0.281655
934.301758 0.287441
933.154297 0.280560
932.005859 0.289266
930.858398 0.267781
929.709961 0.288655
928.561523 0.285186
927.413086 0.289991
926.263672 0.295766
925.114258 0.287921
923.964844 0.310226
922.815430 0.290228
921.665039 0.298914
920.514648 0.305167
919.364258 0.293442
918.213867 0.304065
917.062500 0.289916
915.911133 0.283542
914.759766 0.280569
913.608398 0.299920
912.456055 0.298400
911.303711 0.296396
910.151367 0.280812
908.999023 0.304996
907.845703 0.298143
906.692383 0.306318
905.539063 0.296561
904.385742 0.286323
903.231445 0.305151
902.077148 0.306054
900.922852 0.303567
899.768555 0.305922
898.613281 0.309727
897.458008 0.308693
896.302734 0.331845
895.146484 0.307592
893.991211 0.317680
892.834961 0.307942
891.678711 0.320925
890.521484 0.326654
889.364258 0.338178
888.207031 0.339071
887.049805 0.374732
885.892578 0.374651
884.734375 0.390981
883.576172 0.408270
882.417969 0.387917
881.258789 0.386868
880.099609 0.377621
878.940430 0.380914
877.781250 0.356728
876.621094 0.358096
875.461914 0.337299
874.301758 0.327109
873.140625 0.322703
871.980469 0.307705
870.819336 0.298009
869.658203 0.299388
868.496094 0.298360
867.334961 0.290116
866.172852 0.282838
865.010742 0.283257
863.847656 0.292812
862.685547 0.282653
861.522461 0.282111
860.359375 0.287815
859.195313 0.281027
858.031250 0.286729
856.867188 0.277063
855.703125 0.281803
854.539063 0.287021
853.374023 0.305673
852.208984 0.289774
851.043945 0.294507
849.877930 0.294923
848.711914 0.302529
847.545898 0.288562
846.379883 0.317253
845.212891 0.315746
844.046875 0.306097
842.879883 0.324707
841.711914 0.319848
840.544922 0.359990
839.376953 0.357518
838.208008 0.391413
837.040039 0.398503
835.871094 0.435244
834.702148 0.493965
833.533203 0.532103
832.364258 0.646700
831.194336 0.738309
830.024414 0.873832
828.854492 0.962962
827.683594 1.000000
826.513672 0.971611
825.342773 0.890726
824.170898 0.790787
823.000000 0.725245
821.828125 0.642559
820.656250 0.578510
819.483398 0.518303
818.311523 0.480529
817.138672 0.441341
815.965820 0.398834
814.791992 0.387789
813.619141 0.369128
812.445313 0.346190
811.270508 0.361348
810.096680 0.361744
808.921875 0.345485
807.747070 0.321144
806.572266 0.331538
805.396484 0.340025
804.221680 0.325686
803.045898 0.331794
801.869141 0.322215
800.693359 0.314542
799.516602 0.300221
798.339844 0.316777
797.162109 0.316233
795.985352 0.325182
794.807617 0.315618
793.628906 0.319819
792.451172 0.315953
791.272461 0.317305
790.093750 0.310122
788.915039 0.321906
787.735352 0.340320
786.556641 0.331240
785.375977 0.330219
784.196289 0.335830
783.015625 0.321549
781.835938 0.327632
780.654297 0.319039
779.473633 0.320388
778.291992 0.306123
777.110352 0.298486
775.928711 0.283286
774.747070 0.293152
773.564453 0.300650
772.381836 0.281679
771.199219 0.299572
770.015625 0.283916
768.832031 0.290465
767.648438 0.299844
766.464844 0.313940
765.280273 0.301126
764.095703 0.309081
762.911133 0.310899
761.725586 0.343847
760.541016 0.341884
759.355469 0.366795
758.168945 0.399708
756.983398 0.399618
755.796875 0.400000
754.610352 0.432884
753.422852 0.394170
752.236328 0.382312
751.048828 0.378460
749.861328 0.371317
748.672852 0.362764
747.485352 0.358920
746.296875 0.356488
745.107422 0.349355
743.918945 0.346927
742.729492 0.351079
741.540039 0.335964
740.349609 0.318507
739.160156 0.324542
737.969727 0.301930
736.779297 0.307496
735.587891 0.320569
734.397461 0.311581
733.206055 0.313857
732.013672 0.296901
730.822266 0.310902
729.629883 0.306144
728.437500 0.295764
727.244141 0.302726
726.051758 0.307343
724.858398 0.298375
723.665039 0.320786
722.470703 0.321182
721.276367 0.316429
720.082031 0.295298
718.887695 0.317690
717.693359 0.306860
716.498047 0.319886
715.302734 0.310930
714.106445 0.314132
712.911133 0.322006
711.714844 0.309785
710.517578 0.308781
709.321289 0.317118
708.124023 0.312377
706.926758 0.313240
705.729492 0.310369
704.531250 0.325698
703.333008 0.323292
702.134766 0.340009
700.936523 0.322213
699.737305 0.331930
698.538086 0.329525
697.338867 0.330382
696.138672 0.326581
694.938477 0.330699
693.738281 0.334815
692.538086 0.349172
691.336914 0.348627
690.135742 0.349944
688.934570 0.374988
687.732422 0.358158
686.531250 0.359007
685.328125 0.382637
684.125977 0.372789
682.923828 0.381070
681.720703 0.362399
680.516602 0.383684
679.313477 0.376166
678.109375 0.371438
676.905273 0.395956
675.701172 0.393545
674.496094 0.396704
673.291992 0.386408
672.085938 0.397915
670.880859 0.385769
669.674805 0.393562
668.468750 0.390228
667.262695 0.384579
666.055664 0.384955
664.849609 0.377457
663.642578 0.360239
662.434570 0.349047
661.227539 0.360075
660.019531 0.340559
658.810547 0.349271
657.602539 0.346879
656.393555 0.342176
655.184570 0.343484
653.975586 0.349415
652.765625 0.359039
651.555664 0.352951
650.345703 0.351485
649.134766 0.357407
647.924805 0.335166
646.712891 0.330935
645.501953 0.338704
644.291016 0.336782
643.079102 0.339472
641.866211 0.328327
640.654297 0.334245
639.441406 0.330021
638.228516 0.325798
637.015625 0.320195
635.801758 0.334400
634.587891 0.317745
633.374023 0.336549
632.160156 0.325425
630.945313 0.329032
629.730469 0.334477
628.514648 0.336240
627.299805 0.338462
626.083984 0.348040
624.868164 0.331412
623.651367 0.336851
622.435547 0.336314
621.218750 0.338533
620.000977 0.358662
618.784180 0.353070
617.566406 0.351611
616.347656 0.365298
615.129883 0.348238
613.911133 0.355038
612.692383 0.340740
611.473633 0.338369
610.253906 0.322248
609.034180 0.338213
607.814453 0.328055
606.594727 0.325231
605.374023 0.326530
604.153320 0.320961
602.931641 0.333246
601.710938 0.330423
600.489258 0.335837
599.267578 0.306484
598.044922 0.313730
596.822266 0.318687
595.599609 0.316328
594.376953 0.326766
593.153320 0.321208
591.929688 0.329356
590.706055 0.316036
589.481445 0.327834
588.257813 0.329128
587.032227 0.329964
585.807617 0.318481
584.582031 0.344409
583.356445 0.334295
582.130859 0.328291
580.905273 0.336876
579.678711 0.325404
578.452148 0.325784
577.224609 0.319786
575.997070 0.314702
574.769531 0.316906
573.541992 0.330034
572.313477 0.330867
571.084961 0.322600
569.856445 0.322070
568.627930 0.321541
567.398438 0.316919
566.168945 0.337756
564.939453 0.321771
563.708984 0.318970
562.478516 0.322984
561.248047 0.332446
560.016602 0.325104
558.785156 0.322304
557.553711 0.325406
556.322266 0.313533
555.089844 0.313006
553.857422 0.325632
552.625000 0.319208
551.391602 0.321400
550.158203 0.317699
548.924805 0.326687
547.690430 0.312115
546.457031 0.324270
545.222656 0.308799
543.987305 0.307369
542.752930 0.320422
541.517578 0.318989
540.281250 0.331128
539.045898 0.327885
537.809570 0.314696
536.573242 0.315526
535.335938 0.322683
534.099609 0.316282
532.861328 0.310335
531.624023 0.334199
530.385742 0.341796
529.148438 0.337202
527.909180 0.319522
526.670898 0.320349
525.431641 0.341926
524.192383 0.326061
522.952148 0.330493
521.712891 0.325006
520.472656 0.336647
519.231445 0.322601
517.991211 0.336489
516.750000 0.331005
515.508789 0.316069
514.266602 0.322747
513.024414 0.328071
511.782227 0.339692
510.540039 0.321169
509.296875 0.340431
508.053711 0.333157
506.810547 0.353306
505.566406 0.346032
504.322266 0.350893
503.078125 0.352157
501.833008 0.358361
500.587891 0.365460
499.342773 0.364925
498.097656 0.358556
496.851563 0.370136
495.605469 0.370945
494.359375 0.369512
493.112305 0.387358
491.865234 0.380991
490.618164 0.388070
489.370117 0.386634
488.123047 0.385647
486.874023 0.398989
485.625977 0.384121
484.376953 0.409094
483.127930 0.411682
481.878906 0.393689
480.628906 0.419537
479.378906 0.410047
478.128906 0.425150
476.877930 0.427283
475.626953 0.438799
474.375977 0.449863
473.125000 0.439484
471.873047 0.447863
470.621094 0.467399
469.368164 0.502546
468.115234 0.497964
466.862305 0.520150
465.609375 0.538312
464.355469 0.552451
463.102539 0.587090
461.847656 0.644887
460.593750 0.699092
459.338867 0.759953
458.083984 0.831918
456.828125 0.910973
455.572266 0.932567
454.316406 0.924333
453.060547 0.901421
451.803711 0.867398
450.546875 0.770688
449.290039 0.726042
448.032227 0.648081
446.774414 0.612374
445.516602 0.585126
444.257813 0.553004
442.999023 0.551539
441.740234 0.540752
440.481445 0.547279
439.221680 0.530729
437.961914 0.507975
436.701172 0.509184
435.441406 0.513939
434.180664 0.528889
432.918945 0.516794
431.658203 0.533951
430.396484 0.553315
429.133789 0.527050
427.872070 0.541093
426.609375 0.513073
425.346680 0.547028
424.083008 0.512825
422.819336 0.526857
421.555664 0.525403
420.291016 0.530140
419.027344 0.507025
417.762695 0.522812
416.497070 0.536824
415.231445 0.541554
413.965820 0.561737
412.700195 0.568223
411.433594 0.580004
410.166992 0.609871
408.900391 0.613694
407.632813 0.615750
406.365234 0.642060
405.097656 0.658216
403.830078 0.664227
402.561523 0.686539
401.291992 0.703994
400.023438 0.718357
398.753906 0.742841
397.484375 0.757628
396.214844 0.764485
394.944336 0.798180
393.673828 0.779509
392.402344 0.810105
391.130859 0.818702
389.859375 0.831689
388.587891 0.866205
387.315430 0.881811
386.042969 0.891259
384.770508 0.904655
383.497070 0.905312
382.223633 0.922648
380.950195 0.952263
379.676758 0.933165
378.402344 0.931621
377.126953 0.945425
375.852539 0.931165
374.577148 0.955919
373.301758 0.949988
372.025391 0.961584
370.749023 0.932441
369.472656 0.912947
368.196289 0.919727
366.918945 0.930004
365.641602 0.894335
364.363281 0.920798
363.085938 0.904828
361.807617 0.898922
360.528320 0.865043
359.249023 0.856090
357.969727 0.873355
356.690430 0.832955
355.410156 0.848033
354.129883 0.821630
352.849609 0.811388
351.568359 0.816424
350.287109 0.789175
349.005859 0.818202
347.723633 0.812331
346.441406 0.808643
345.159180 0.821081
343.875977 0.782100
342.592773 0.783649
341.309570 0.755583
340.026367 0.733191
338.742188 0.729962
337.457031 0.724559
336.172852 0.711763
334.887695 0.708106
333.602539 0.679665
332.316406 0.655586
331.030273 0.656292
329.744141 0.669599
328.457031 0.634245
327.170898 0.625401
325.882813 0.632627
324.595703 0.634205
323.307617 0.610612
322.019531 0.620005
320.730469 0.613344
319.441406 0.603217
318.152344 0.596997
316.863281 0.593813
315.573242 0.590632
314.283203 0.599148
312.992188 0.598999
311.701172 0.597983
310.410156 0.565798
309.119141 0.589460
307.827148 0.611812
306.535156 0.607333
305.242188 0.589449
303.950195 0.612649
302.656250 0.615521
301.363281 0.627466
300.069336 0.622988
298.775391 0.640108
297.480469 0.630879
296.186523 0.669142
294.891602 0.663795
293.595703 0.705913
292.299805 0.722990
291.003906 0.746959
289.708008 0.761430
288.411133 0.801326
287.114258 0.818361
285.816406 0.871578
284.518555 0.925629
283.220703 0.941759
281.922852 0.947117
280.624023 0.995082
279.325195 1.034847
278.025391 1.072441
276.725586 1.092383
275.425781 1.107154
274.125977 1.185967
272.825195 1.214458
271.523438 1.266566
270.222656 1.302754
268.920898 1.387018
267.619141 1.451920
266.316406 1.550695
265.013672 1.592352
263.710938 1.648142
262.408203 1.724919
261.104492 1.793510
259.799805 1.860780
258.496094 1.922015
257.191406 2.003784
255.886719 2.006270
254.581055 2.087974
253.275391 2.140954
251.969727 2.180638
250.663086 2.234849
249.356445 2.251816
248.049805 2.295716
246.742188 2.312657
245.434570 2.306935
244.126953 2.365315
242.818359 2.382225
241.509766 2.387592
240.201172 2.344278
238.891602 2.362885
237.582031 2.309356
236.271484 2.323268
234.961914 2.300915
233.650391 2.251706
232.339844 2.217017
231.028320 2.213888
229.716797 2.152806
228.405273 2.200817
227.092773 2.146584
225.779297 2.116649
224.466797 2.126318
223.153320 2.097679
221.839844 2.115857
220.525391 2.082982
219.210938 2.095624
217.896484 2.109536
216.581055 2.061810
215.265625 2.083371
213.950195 2.055642
212.633789 2.058930
211.317383 2.018484
210.000977 1.988245
208.683594 1.953354
207.366211 1.911692
206.048828 1.917981
204.730469 1.927233
203.412109 1.900447
202.092773 1.829175
200.773438 1.829121
199.454102 1.838809
198.133789 1.756597
196.814453 1.787043
195.493164 1.746366
194.172852 1.739984
192.851563 1.760680
191.529297 1.759373
190.208008 1.760180
188.885742 1.774935
187.562500 1.721645
186.239258 1.749076
184.916016 1.718628
183.592773 1.690307
182.268555 1.732077
180.944336 1.724446
179.619141 1.742135
178.293945 1.775842
176.968750 1.772000
175.643555 1.747923
174.317383 1.782445
172.990234 1.812312
171.664063 1.835423
170.336914 1.853889
169.008789 1.844557
167.680664 1.910574
166.352539 1.893235
165.024414 1.983184
163.695313 2.002846
162.366211 2.066647
161.036133 2.127892
159.706055 2.183220
158.375977 2.237678
157.044922 2.317309
155.713867 2.388498
154.382813 2.480639
153.050781 2.518170
151.718750 2.632463
150.385742 2.674127
149.053711 2.721220
147.719727 2.804342
146.386719 2.854727
145.052734 2.844325
143.717773 2.843983
142.383789 2.915673
141.048828 2.970995
139.712891 2.991964
138.377930 2.986558
137.041016 2.993287
135.705078 2.979099
134.368164 3.016765
133.031250 2.994217
131.693359 2.967919
130.355469 2.975475
129.017578 2.960055
127.678711 3.003100
126.339844 2.970564
125.000977 2.942217
123.661133 2.943509
122.321289 2.924360
120.980469 2.945253
119.639648 2.886925
118.298828 2.933238
116.957031 2.938277
115.615234 2.932898
114.273438 2.962918
112.930664 2.978766
111.587891 2.982951
110.244141 3.015011
108.900391 2.938482
107.556641 2.859915
106.211914 2.766423
104.867188 2.620611
103.522461 2.495238
102.176758 2.260679
100.831055 1.991362
99.484375 1.764542
98.137695 1.495507
