3198.529297 0.009999
3197.824219 0.007331
3197.119141 0.007330
3196.414063 0.005996
3195.708008 0.008660
3195.001953 0.012655
3194.296875 0.007991
3193.590820 0.010654
3192.884766 0.006658
3192.178711 0.008653
3191.472656 0.007987
3190.765625 0.008651
3190.059570 0.007984
3189.352539 0.011974
3188.646484 0.006651
3187.939453 0.009975
3187.232422 0.009974
3186.525391 0.009307
3185.818359 0.009971
3185.111328 0.011963
3184.404297 0.011961
3183.696289 0.009966
3182.989258 0.009964
3182.281250 0.006642
3181.573242 0.003984
3180.865234 0.008632
3180.157227 0.011950
3179.449219 0.006638
3178.741211 0.009955
3178.033203 0.007299
3177.324219 0.006634
3176.616211 0.007297
3175.907227 0.009285
3175.198242 0.009947
3174.489258 0.008619
3173.780273 0.009281
3173.071289 0.013919
3172.362305 0.009278
3171.652344 0.011264
3170.943359 0.011262
3170.233398 0.015235
3169.523438 0.006623
3168.814453 0.006622
3168.104492 0.009931
3167.394531 0.009929
3166.683594 0.008604
3165.973633 0.007941
3165.263672 0.009924
3164.552734 0.007277
3163.841797 0.003969
3163.130859 0.011242
3162.420898 0.008596
3161.709961 0.007272
3160.998047 0.012559
3160.287109 0.009252
3159.576172 0.012555
3158.864258 0.011892
3158.153320 0.010569
3157.441406 0.008586
3156.729492 0.013867
3156.017578 0.013205
3155.305664 0.007261
3154.593750 0.009240
3153.880859 0.011219
3153.168945 0.008577
3152.456055 0.011215
3151.744141 0.008575
3151.031250 0.008573
3150.318359 0.007253
3149.605469 0.009889
3148.892578 0.010546
3148.178711 0.009886
3147.465820 0.009225
3146.751953 0.012518
3146.039063 0.008563
3145.325195 0.010538
3144.611328 0.010536
3143.897461 0.005926
3143.183594 0.011191
3142.468750 0.008556
3141.754883 0.010529
3141.041016 0.008553
3140.326172 0.008552
3139.611328 0.007893
3138.896484 0.011837
3138.181641 0.003945
3137.466797 0.006574
3136.751953 0.013146
3136.037109 0.013144
3135.321289 0.009199
3134.605469 0.008541
3133.890625 0.011823
3133.174805 0.011165
3132.458984 0.010506
3131.743164 0.008535
3131.027344 0.008533
3130.310547 0.013126
3129.594727 0.009187
3128.877930 0.011154
3128.161133 0.011152
3127.445313 0.007870
3126.728516 0.011804
3126.010742 0.009835
3125.293945 0.013111
3124.577148 0.007210
3123.859375 0.007864
3123.142578 0.011794
3122.424805 0.009826
3121.707031 0.010480
3120.989258 0.011133
3120.271484 0.013750
3119.553711 0.013748
3118.835938 0.009818
3118.117188 0.007853
3117.399414 0.010469
3116.680664 0.011776
3115.961914 0.008503
3115.243164 0.011772
3114.524414 0.008500
3113.805664 0.008499
3113.086914 0.009805
3112.367188 0.013071
3111.648438 0.010455
3110.928711 0.011106
3110.208984 0.009798
3109.489258 0.013062
3108.769531 0.007183
3108.049805 0.010446
3107.329102 0.011097
3106.609375 0.011095
3105.888672 0.011093
3105.168945 0.010439
3104.448242 0.007828
3103.727539 0.009131
3103.006836 0.007825
3102.285156 0.012387
3101.564453 0.009778
3100.843750 0.013035
3100.122070 0.012381
3099.400391 0.011076
3098.678711 0.009771
3097.957031 0.013026
3097.235352 0.013024
3096.513672 0.011068
3095.791992 0.012368
3095.069336 0.011064
3094.346680 0.009761
3093.625000 0.011711
3092.902344 0.009758
3092.179688 0.014959
3091.457031 0.016907
3090.733398 0.009102
3090.010742 0.009751
3089.287109 0.008449
3088.564453 0.014946
3087.840820 0.013644
3087.117188 0.011043
3086.393555 0.013639
3085.669922 0.011689
3084.946289 0.012336
3084.221680 0.011036
3083.498047 0.014928
3082.773438 0.013627
3082.048828 0.011679
3081.324219 0.011676
3080.599609 0.014269
3079.875000 0.011672
3079.149414 0.010374
3078.424805 0.009075
3077.699219 0.010370
3076.974609 0.009720
3076.249023 0.012958
3075.523438 0.014251
3074.797852 0.009067
3074.071289 0.010361
3073.345703 0.011654
3072.619141 0.012947
3071.893555 0.010355
3071.166992 0.012295
3070.440430 0.010352
3069.713867 0.012937
3068.987305 0.012935
3068.259766 0.015519
3067.533203 0.016163
3066.805664 0.010343
3066.079102 0.010987
3065.351563 0.015508
3064.624023 0.012275
3063.896484 0.012919
3063.168945 0.010979
3062.440430 0.014206
3061.712891 0.014203
3060.984375 0.015492
3060.255859 0.012262
3059.527344 0.014196
3058.798828 0.011613
3058.070313 0.015481
3057.341797 0.014188
3056.613281 0.013541
3055.883789 0.014183
3055.154297 0.016759
3054.424805 0.015467
3053.695313 0.014820
3052.965820 0.016750
3052.236328 0.016103
3051.506836 0.009660
3050.776367 0.012878
3050.046875 0.012232
3049.316406 0.013517
3048.585938 0.014801
3047.855469 0.012225
3047.125000 0.014153
3046.393555 0.016723
3045.663086 0.014148
3044.931641 0.016717
3044.201172 0.015428
3043.469727 0.011569
3042.738281 0.016065
3042.006836 0.017348
3041.275391 0.009636
3040.542969 0.013488
3039.811523 0.011559
3039.079102 0.016693
3038.346680 0.012838
3037.614258 0.014762
3036.881836 0.015401
3036.149414 0.016681
3035.416992 0.015395
3034.683594 0.016034
3033.951172 0.013466
3033.217773 0.014746
3032.484375 0.021794
3031.750977 0.017304
3031.017578 0.017941
3030.284180 0.012813
3029.549805 0.015373
3028.816406 0.014730
3028.082031 0.017928
3027.347656 0.016005
3026.613281 0.016642
3025.878906 0.019199
3025.144531 0.021115
3024.410156 0.023670
3023.674805 0.017269
3022.939453 0.015348
3022.205078 0.018542
3021.469727 0.017899
3020.734375 0.018535
3019.999023 0.021088
3019.262695 0.013417
3018.527344 0.015970
3017.791016 0.018521
3017.054688 0.017880
3016.318359 0.019153
3015.582031 0.022980
3014.845703 0.018508
3014.109375 0.020419
3013.373047 0.018501
3012.635742 0.015309
3011.898438 0.021683
3011.161133 0.020404
3010.424805 0.021675
3009.686523 0.021034
3008.949219 0.018481
3008.211914 0.019752
3007.473633 0.021659
3006.736328 0.021018
3005.998047 0.020378
3005.259766 0.017191
3004.521484 0.021643
3003.782227 0.017821
3003.043945 0.022272
3002.305664 0.020995
3001.566406 0.023536
3000.827148 0.026075
3000.087891 0.027978
2999.348633 0.026066
2998.609375 0.020340
2997.870117 0.024150
2997.129883 0.018427
2996.389648 0.026046
2995.650391 0.024771
2994.910156 0.019051
2994.169922 0.023492
2993.429688 0.026027
2992.688477 0.023484
2991.948242 0.026652
2991.207031 0.022206
2990.465820 0.028545
2989.725586 0.027906
2988.983398 0.025998
2988.242188 0.027261
2987.500977 0.022185
2986.759766 0.033589
2986.017578 0.027246
2985.275391 0.033576
2984.533203 0.031037
2983.791016 0.024698
2983.048828 0.028492
2982.306641 0.027221
2981.563477 0.029748
2980.821289 0.030375
2980.078125 0.034165
2979.334961 0.031629
2978.591797 0.031623
2977.848633 0.029088
2977.105469 0.036037
2976.361328 0.038558
2975.618164 0.042343
2974.874023 0.042967
2974.129883 0.044223
2973.385742 0.040425
2972.641602 0.041049
2971.897461 0.042935
2971.152344 0.042927
2970.408203 0.039763
2969.663086 0.044173
2968.917969 0.043534
2968.172852 0.043526
2967.427734 0.042887
2966.682617 0.042248
2965.936523 0.044132
2965.191406 0.047275
2964.445313 0.046636
2963.699219 0.051038
2962.953125 0.044099
2962.207031 0.051019
2961.460938 0.049120
2960.713867 0.056037
2959.967773 0.061692
2959.220703 0.060421
2958.473633 0.064186
2957.726563 0.066061
2956.979492 0.066049
2956.232422 0.059118
2955.484375 0.064137
2954.737305 0.057839
2953.989258 0.060342
2953.241211 0.070386
2952.493164 0.074771
2951.745117 0.067218
2950.997070 0.075371
2950.248047 0.065309
2949.500000 0.069064
2948.750977 0.064656
2948.001953 0.065272
2947.252930 0.072789
2946.503906 0.077167
2945.754883 0.075271
2945.004883 0.073375
2944.255859 0.075870
2943.505859 0.070213
2942.755859 0.072080
2942.005859 0.080213
2941.255859 0.080198
2940.504883 0.064522
2939.754883 0.072652
2939.003906 0.075769
2938.252930 0.066990
2937.502930 0.074488
2936.750977 0.076352
2936.000000 0.076337
2935.249023 0.076323
2934.497070 0.073181
2933.746094 0.071291
2932.994141 0.070652
2932.242188 0.066888
2931.490234 0.071250
2930.738281 0.071237
2929.985352 0.073722
2929.233398 0.076207
2928.480469 0.074319
2927.727539 0.070558
2926.974609 0.073666
2926.221680 0.068659
2925.468750 0.069894
2924.715820 0.071128
2923.961914 0.075482
2923.208008 0.072349
2922.455078 0.074829
2921.701172 0.077309
2920.946289 0.070437
2920.192383 0.069177
2919.438477 0.069164
2918.683594 0.080988
2917.928711 0.074744
2917.173828 0.079089
2916.418945 0.079696
2915.664063 0.069098
2914.909180 0.074686
2914.153320 0.071561
2913.398438 0.072791
2912.642578 0.077754
2911.886719 0.080848
2911.130859 0.079589
2910.375000 0.076466
2909.619141 0.082045
2908.862305 0.077679
2908.105469 0.078286
2907.349609 0.075165
2906.592773 0.083224
2905.835938 0.082587
2905.078125 0.087538
2904.321289 0.078831
2903.563477 0.083160
2902.806641 0.089970
2902.048828 0.081267
2901.291016 0.083113
2900.533203 0.076275
2899.774414 0.073781
2899.016602 0.081205
2898.257813 0.091106
2897.500000 0.079315
2896.741211 0.083017
2895.982422 0.084859
2895.222656 0.081127
2894.463867 0.076777
2893.705078 0.089762
2892.945313 0.088507
2892.185547 0.082921
2891.425781 0.079193
2890.666016 0.084744
2889.906250 0.085347
2889.146484 0.080383
2888.385742 0.090259
2887.625000 0.082825
2886.864258 0.089606
2886.103516 0.090207
2885.342773 0.086483
2884.582031 0.089555
2883.821289 0.082745
2883.059570 0.089520
2882.297852 0.091972
2881.536133 0.089485
2880.774414 0.085766
2880.012695 0.089451
2879.250977 0.086349
2878.488281 0.088183
2877.726563 0.094331
2876.963867 0.085683
2876.201172 0.085050
2875.438477 0.085650
2874.674805 0.095490
2873.912109 0.096087
2873.149414 0.092990
2872.385742 0.089893
2871.622070 0.090491
2870.858398 0.091704
2870.094727 0.085533
2869.330078 0.076288
2868.566406 0.085500
2867.801758 0.107008
2867.038086 0.086082
2866.273438 0.095286
2865.508789 0.096497
2864.743164 0.100165
2863.978516 0.087858
2863.212891 0.097055
2862.448242 0.100107
2861.682617 0.093947
2860.916992 0.094542
2860.151367 0.094524
2859.384766 0.098187
2858.619141 0.093260
2857.852539 0.094469
2857.086914 0.098130
2856.320313 0.101790
2855.553711 0.098092
2854.786133 0.100524
2854.019531 0.102343
2853.251953 0.093745
2852.485352 0.098015
2851.717773 0.100446
2850.950195 0.096140
2850.182617 0.104080
2849.414063 0.099775
2848.646484 0.094247
2847.877930 0.093617
2847.110352 0.102163
2846.341797 0.090522
2845.573242 0.089893
2844.803711 0.099046
2844.035156 0.094748
2843.266602 0.089229
2842.497070 0.101432
2841.727539 0.088583
2840.958008 0.098338
2840.188477 0.092212
2839.418945 0.098910
2838.648438 0.092787
2837.878906 0.093989
2837.108398 0.092750
2836.337891 0.085411
2835.567383 0.096983
2834.795898 0.099404
2834.025391 0.090238
2833.254883 0.091440
2832.483398 0.099345
2831.711914 0.088966
2830.940430 0.101743
2830.168945 0.089540
2829.397461 0.091959
2828.625000 0.090723
2827.852539 0.085226
2827.081055 0.090687
2826.308594 0.094320
2825.536133 0.081525
2824.762695 0.086376
2823.990234 0.101563
2823.216797 0.089990
2822.444336 0.092404
2821.670898 0.085700
2820.897461 0.091152
2820.123047 0.088704
2819.349609 0.088079
2818.576172 0.087454
2817.801758 0.094723
2817.027344 0.101382
2816.252930 0.084974
2815.478516 0.090419
2814.704102 0.082514
2813.928711 0.080678
2813.154297 0.083694
2812.378906 0.081252
2811.603516 0.073355
2810.828125 0.080614
2810.052734 0.084234
2809.276367 0.078764
2808.500977 0.085412
2807.724609 0.084184
2806.948242 0.075690
2806.171875 0.079307
2805.395508 0.083528
2804.619141 0.081091
2803.841797 0.079865
2803.064453 0.079244
2802.288086 0.086486
2801.510742 0.076794
2800.733398 0.081011
2799.955078 0.077368
2799.177734 0.085209
2798.399414 0.076733
2797.621094 0.080342
2796.842773 0.080930
2796.064453 0.073064
2795.286133 0.070635
2794.507813 0.077864
2793.728516 0.074227
2792.950195 0.069989
2792.170898 0.069372
2791.391602 0.070564
2790.611328 0.072962
2789.832031 0.069330
2789.052734 0.072330
2788.272461 0.069905
2787.492188 0.069891
2786.711914 0.070480
2785.931641 0.065045
2785.151367 0.070452
2784.370117 0.074050
2783.588867 0.062599
2782.808594 0.064392
2782.027344 0.067387
2781.246094 0.060757
2780.463867 0.064954
2779.682617 0.062536
2778.900391 0.067934
2778.119141 0.064314
2777.336914 0.060696
2776.554688 0.067293
2775.771484 0.064876
2774.989258 0.060059
2774.206055 0.072056
2773.423828 0.063036
2772.640625 0.058822
2771.857422 0.055210
2771.074219 0.062398
2770.290039 0.064186
2769.506836 0.061174
2768.722656 0.060562
2767.938477 0.058152
2767.154297 0.065333
2766.370117 0.056331
2765.585938 0.058716
2764.800781 0.056308
2764.016602 0.064082
2763.231445 0.068860
2762.446289 0.056873
2761.661133 0.059255
2760.875000 0.064629
2760.089844 0.058035
2759.303711 0.049051
2758.518555 0.058012
2757.732422 0.060990
2756.945313 0.059782
2756.159180 0.065149
2755.373047 0.057367
2754.585938 0.056161
2753.798828 0.059733
2753.012695 0.055541
2752.224609 0.053738
2751.437500 0.057309
2750.650391 0.065654
2749.862305 0.060270
2749.074219 0.059064
2748.287109 0.064421
2747.499023 0.061426
2746.709961 0.057240
2745.921875 0.056632
2745.132813 0.061985
2744.344727 0.056609
2743.555664 0.058981
2742.766602 0.059565
2741.977539 0.058957
2741.187500 0.063708
2740.398438 0.061314
2739.608398 0.060111
2738.818359 0.064265
2738.028320 0.063062
2737.238281 0.055316
2736.448242 0.059468
2735.657227 0.057672
2734.866211 0.064199
2734.075195 0.057054
2733.284180 0.058825
2732.493164 0.067725
2731.702148 0.062365
2730.910156 0.063540
2730.119141 0.052247
2729.327148 0.054611
2728.535156 0.056973
2727.743164 0.056962
2726.950195 0.054577
2726.158203 0.060497
2725.365234 0.055741
2724.572266 0.059287
2723.779297 0.055718
2722.986328 0.056892
2722.193359 0.056880
2721.399414 0.055092
2720.606445 0.053896
2719.812500 0.058622
2719.018555 0.051506
2718.224609 0.055047
2717.430664 0.048526
2716.635742 0.046741
2715.840820 0.061520
2715.046875 0.059733
2714.251953 0.053217
2713.456055 0.057344
2712.661133 0.053786
2711.866211 0.062639
2711.070313 0.054945
2710.274414 0.051981
2709.478516 0.050789
2708.682617 0.049598
2707.886719 0.057852
2707.089844 0.060791
2706.293945 0.054878
2705.497070 0.053687
2704.700195 0.057805
2703.903320 0.058972
2703.105469 0.054833
2702.308594 0.060716
2701.510742 0.047149
2700.712891 0.055388
2699.915039 0.053020
2699.117188 0.051242
2698.319336 0.047110
2697.520508 0.051810
2696.722656 0.050034
2695.923828 0.056497
2695.125000 0.057074
2694.326172 0.051767
2693.526367 0.047052
2692.727539 0.053510
2691.927734 0.056439
2691.127930 0.049961
2690.328125 0.050539
2689.528320 0.050528
2688.728516 0.048756
2687.927734 0.049920
2687.126953 0.048148
2686.326172 0.048138
2685.525391 0.053411
2684.724609 0.059268
2683.923828 0.052802
2683.122070 0.055724
2682.321289 0.055126
2681.519531 0.048665
2680.717773 0.062137
2679.915039 0.056850
2679.113281 0.059182
2678.310547 0.054483
2677.508789 0.060329
2676.706055 0.050947
2675.903320 0.052107
2675.099609 0.055023
2674.296875 0.045063
2673.493164 0.053830
2672.690430 0.057329
2671.886719 0.052638
2671.083008 0.052627
2670.278320 0.049693
2669.474609 0.050851
2668.669922 0.056100
2667.865234 0.050830
2667.060547 0.058413
2666.255859 0.049057
2665.451172 0.051382
2664.646484 0.053707
2663.840820 0.050777
2663.035156 0.047849
2662.229492 0.049006
2661.423828 0.055412
2660.618164 0.054234
2659.811523 0.062385
2659.004883 0.057709
2658.199219 0.054200
2657.391602 0.050110
2656.584961 0.052430
2655.778320 0.054748
2655.033203 0.057775
2654.970703 0.054154
2654.227539 0.044352
2654.164063 0.050068
2653.421875 0.050764
2653.356445 0.053550
2652.616211 0.044922
2652.548828 0.051793
2651.810547 0.047831
2651.740234 0.053527
2651.004883 0.050156
2650.932617 0.052353
2650.198242 0.046649
2650.124023 0.052923
2649.392578 0.046642
2649.316406 0.052331
2648.585938 0.049549
2648.507813 0.049413
2647.779297 0.051872
2647.699219 0.057540
2646.972656 0.051281
2646.889648 0.056365
2646.166016 0.058264
2646.081055 0.058096
2645.359375 0.053012
2645.271484 0.062150
2644.552734 0.052421
2644.461914 0.051103
2643.745117 0.054741
2643.652344 0.048190
2642.938477 0.048910
2642.842773 0.056306
2642.130859 0.055888
2642.033203 0.053392
2641.323242 0.055297
2641.222656 0.055702
2640.515625 0.057034
2640.413086 0.059751
2639.708008 0.045969
2639.602539 0.051039
2638.899414 0.055851
2638.791992 0.052188
2638.091797 0.052352
2637.981445 0.051597
2637.283203 0.051762
2637.169922 0.057962
2636.475586 0.051172
2636.359375 0.049837
2635.666992 0.047094
2635.547852 0.052144
2634.858398 0.042435
2634.736328 0.057346
2634.049805 0.062190
2633.924805 0.055596
2633.241211 0.053463
2633.113281 0.052111
2632.431641 0.056940
2632.300781 0.058467
2631.623047 0.057511
2631.489258 0.051510
2630.813477 0.052855
2630.676758 0.056128
2630.003906 0.051685
2629.864258 0.051488
2629.194336 0.056902
2629.051758 0.052634
2628.384766 0.058634
2628.238281 0.053201
2627.575195 0.052820
2627.425781 0.052612
2626.765625 0.060936
2626.612305 0.054912
2625.955078 0.051642
2625.798828 0.061836
2625.145508 0.056275
2624.985352 0.059511
2624.334961 0.053945
2624.171875 0.059499
2623.524414 0.056836
2623.358398 0.059486
2622.713867 0.053927
2622.543945 0.061206
2621.903320 0.052179
2621.729492 0.060615
2621.092773 0.056228
2620.916016 0.054254
2620.281250 0.053900
2620.100586 0.060013
2619.469727 0.055050
2619.286133 0.055961
2618.659180 0.060835
2618.471680 0.057103
2617.847656 0.056770
2617.656250 0.057668
2617.036133 0.063710
2616.840820 0.055926
2616.224609 0.060225
2616.025391 0.057643
2615.412109 0.060794
2615.209961 0.057631
2614.600586 0.058468
2614.394531 0.052433
2613.788086 0.062510
2613.578125 0.057606
2612.976563 0.060763
2612.762695 0.062201
2612.164063 0.063067
2611.946289 0.063340
2611.351563 0.061321
2611.129883 0.056418
2610.539063 0.062468
2610.312500 0.065039
2609.726563 0.064192
2609.496094 0.061573
2608.913086 0.058977
2608.678711 0.058108
2608.100586 0.056655
2607.862305 0.058670
2607.287109 0.058379
2607.044922 0.057508
2606.473633 0.052012
2606.227539 0.066695
2605.660156 0.061249
2605.409180 0.058633
2604.846680 0.058927
2604.591797 0.064942
2604.033203 0.056029
2603.773438 0.052287
2603.218750 0.056020
2602.955078 0.066637
2602.405273 0.060630
2602.136719 0.055136
2601.590820 0.060619
2601.318359 0.066035
2600.776367 0.060032
2600.500000 0.062002
2599.961914 0.058867
2599.680664 0.052231
2599.147461 0.057703
2598.861328 0.049351
2598.333008 0.057116
2598.042969 0.056225
2597.518555 0.054799
2597.222656 0.064243
2596.703125 0.056520
2596.403320 0.061362
2595.888672 0.055357
2595.583984 0.054468
2595.073242 0.054771
2594.763672 0.051590
2594.257813 0.052456
2593.943359 0.055018
2593.442383 0.055329
2593.123047 0.060736
2592.625977 0.058200
2592.302734 0.053849
2591.810547 0.061071
2591.482422 0.057846
2590.994141 0.055876
2590.661133 0.058406
2590.178711 0.064506
2589.839844 0.056104
2589.362305 0.054705
2589.018555 0.056092
2588.545898 0.056999
2588.197266 0.057796
2587.729492 0.058716
2587.375977 0.062361
2586.913086 0.058130
2586.554688 0.053195
2586.095703 0.056969
2585.732422 0.054327
2585.279297 0.062138
2584.910156 0.059461
2584.461914 0.060977
2584.087891 0.053732
2583.644531 0.054639
2583.265625 0.057150
2582.827148 0.058655
2582.443359 0.063994
2582.009766 0.050596
2581.620117 0.057125
2581.192383 0.056910
2580.796875 0.056541
2580.374023 0.060349
2579.973633 0.059955
2579.556641 0.059189
2579.150391 0.058800
2578.738281 0.052859
2578.327148 0.061641
2577.919922 0.060892
2577.503906 0.054210
2577.101563 0.054564
2576.679688 0.063326
2576.283203 0.056851
2575.855469 0.061601
2575.464844 0.062583
2575.031250 0.058736
2574.645508 0.061998
2574.207031 0.051882
2573.827148 0.055673
2573.381836 0.066121
2573.007813 0.062550
2572.557617 0.057558
2572.188477 0.055080
2571.732422 0.064953
2571.369141 0.060233
2570.907227 0.060381
2570.549805 0.058502
2570.082031 0.056951
2569.730469 0.055625
2569.256836 0.067188
2568.910156 0.055042
2568.430664 0.055788
2568.090820 0.054459
2567.605469 0.056345
2567.270508 0.058461
2566.779297 0.055194
2566.450195 0.059597
2565.953125 0.057458
2565.629883 0.059587
2565.125977 0.047776
2564.809570 0.057285
2564.299805 0.055158
2563.989258 0.058993
2563.472656 0.052303
2563.167969 0.057837
2562.646484 0.053997
2562.346680 0.060690
2561.819336 0.058531
2561.526367 0.054382
2560.992188 0.056814
2560.705078 0.055517
2560.164063 0.058506
2559.883789 0.060658
2559.336914 0.056221
2559.061523 0.055498
2558.508789 0.061319
2558.240234 0.057204
2557.680664 0.060170
2557.417969 0.060626
2556.852539 0.057319
2556.596680 0.062902
2556.024414 0.060144
2555.774414 0.060032
2555.195313 0.062400
2554.952148 0.056592
2554.367188 0.054446
2554.129883 0.061726
2553.538086 0.057269
2553.307617 0.064572
2552.708984 0.064059
2552.484375 0.062847
2551.878906 0.064045
2551.662109 0.063978
2551.049805 0.056098
2550.838867 0.062253
2550.219727 0.058918
2550.015625 0.057103
2549.390625 0.054374
2549.192383 0.058234
2548.560547 0.060025
2548.369141 0.054799
2547.730469 0.057181
2547.544922 0.068487
2546.899414 0.059432
2546.721680 0.062768
2546.069336 0.061117
2545.897461 0.058193
2545.238281 0.054314
2545.074219 0.056471
2544.407227 0.061655
2544.250000 0.056461
2543.576172 0.056552
2543.425781 0.066145
2542.745117 0.063889
2542.600586 0.060432
2541.913086 0.061049
2541.776367 0.063841
2541.082031 0.061035
2540.951172 0.062690
2540.250000 0.057632
2540.126953 0.058120
2539.417969 0.055359
2539.301758 0.067795
2538.585938 0.056477
2538.476563 0.059808
2537.752930 0.057593
2537.651367 0.058089
2536.920898 0.058710
2536.826172 0.062064
2536.087891 0.059261
2536.000000 0.059207
2535.254883 0.058683
2535.174805 0.062611
2534.421875 0.053029
2534.348633 0.059185
2533.587891 0.059785
2533.522461 0.059175
2532.754883 0.056389
2532.696289 0.062009
2531.920898 0.063141
2531.870117 0.068254
2531.086914 0.063691
2531.042969 0.059712
2530.252930 0.057478
2530.216797 0.061975
2529.418945 0.056902
2529.389648 0.063101
2528.583984 0.061958
2528.562500 0.060248
2527.749023 0.060818
2527.735352 0.061942
2526.914063 0.064183
2526.908203 0.066476
2526.081055 0.057977
2526.079102 0.058511
2525.253906 0.064717
2525.244141 0.058500
2524.425781 0.066953
2524.409180 0.059057
2523.597656 0.062438
2523.573242 0.064724
2522.769531 0.068119
2522.737305 0.060737
2521.941406 0.058458
2521.901367 0.055663
2521.113281 0.065257
2521.065430 0.062396
2520.285156 0.064110
2520.228516 0.062382
2519.456055 0.066935
2519.392578 0.062368
2518.627930 0.056147
2518.555664 0.060668
2517.798828 0.061807
2517.718750 0.058408
2516.969727 0.064063
2516.881836 0.057272
2516.140625 0.065752
2516.043945 0.062873
2515.311523 0.067441
2515.207031 0.064542
2514.481445 0.064028
2514.369141 0.065650
2513.651367 0.068549
2513.531250 0.067318
2512.822266 0.063439
2512.693359 0.064499
2511.992188 0.057198
2511.855469 0.064484
2511.162109 0.068511
2511.016602 0.061106
2510.332031 0.056045
2510.177734 0.065016
2509.500977 0.063958
2509.338867 0.059397
2508.670898 0.063947
2508.500000 0.065546
2507.839844 0.068461
2507.661133 0.064411
2507.008789 0.065055
2506.821289 0.059917
2506.177734 0.068436
2505.982422 0.064942
2505.346680 0.071251
2505.142578 0.059330
2504.515625 0.063888
2504.302734 0.066032
2503.683594 0.066138
2503.461914 0.064898
2502.852539 0.064430
2502.622070 0.066561
2502.020508 0.060463
2501.781250 0.060954
2501.188477 0.062711
2500.940430 0.065972
2500.356445 0.067219
2500.099609 0.063162
2499.524414 0.068901
2499.258789 0.063148
2498.691406 0.067194
2498.416992 0.058664
2497.859375 0.068311
2497.576172 0.064795
2497.026367 0.058703
2496.734375 0.065338
2496.193359 0.067721
2495.892578 0.068115
2495.360352 0.069402
2495.050781 0.061401
2494.527344 0.054157
2494.208008 0.068642
2493.694336 0.064864
2493.365234 0.068068
2492.860352 0.067671
2492.523438 0.067495
2492.027344 0.072733
2491.680664 0.065249
2491.193359 0.069337
2490.836914 0.056871
2490.359375 0.061434
2489.994141 0.067449
2489.525391 0.067058
2489.150391 0.066319
2488.691406 0.068172
2488.306641 0.061846
2487.856445 0.069286
2487.462891 0.061832
2487.022461 0.070963
2486.619141 0.070728
2486.187500 0.062503
2485.775391 0.066814
2485.352539 0.064744
2484.930664 0.067356
2484.517578 0.066420
2484.085938 0.062888
2483.682617 0.078789
2483.241211 0.063430
2482.846680 0.062457
2482.396484 0.062303
2482.011719 0.066383
2481.550781 0.066181
2481.175781 0.065809
2480.706055 0.066722
2480.339844 0.060173
2479.860352 0.063927
2479.503906 0.066346
2479.014648 0.062245
2478.667969 0.057340
2478.168945 0.062787
2477.832031 0.059577
2477.322266 0.061661
2476.995117 0.066309
2476.476563 0.059425
2476.158203 0.063488
2475.629883 0.069406
2475.322266 0.069093
2474.783203 0.061063
2474.485352 0.059533
2473.936523 0.065489
2473.647461 0.065137
2473.088867 0.062145
2472.810547 0.064002
2472.242188 0.059911
2471.973633 0.058377
2471.394531 0.068216
2471.135742 0.064539
2470.546875 0.067092
2470.297852 0.065088
2469.698242 0.062641
2469.459961 0.066759
2468.850586 0.067615
2468.622070 0.070673
2468.001953 0.060950
2467.784180 0.065052
2467.153320 0.062598
2466.946289 0.066722
2466.304688 0.066460
2466.107422 0.068951
2465.456055 0.074196
2465.268555 0.072301
2464.607422 0.066429
2464.429688 0.062761
2463.757813 0.067520
2463.590820 0.067792
2462.908203 0.074144
2462.751953 0.066099
2462.058594 0.069148
2461.913086 0.067207
2461.208984 0.067473
2461.073242 0.069434
2460.358398 0.058057
2460.233398 0.068301
2459.508789 0.069653
2459.394531 0.068848
2458.658203 0.064662
2458.554688 0.069954
2457.807617 0.066857
2457.713867 0.066024
2456.956055 0.060213
2456.874023 0.074963
2456.105469 0.064065
2456.033203 0.068237
2455.253906 0.065154
2455.193359 0.071020
2454.402344 0.069555
2454.352539 0.071566
2453.550781 0.061812
2453.511719 0.074347
2452.699219 0.070074
2452.670898 0.077128
2451.846680 0.068954
2451.829102 0.064820
2450.995117 0.066180
2450.988281 0.074864
2450.146484 0.062856
2450.142578 0.064795
2449.304688 0.063944
2449.290039 0.063666
2448.462891 0.063929
2448.436523 0.070913
2447.621094 0.069225
2447.583984 0.063363
2446.779297 0.065304
2446.730469 0.062246
2445.937500 0.068082
2445.876953 0.068290
2445.094727 0.068627
2445.023438 0.062217
2444.251953 0.068614
2444.169922 0.062753
2443.409180 0.069159
2443.315430 0.061637
2442.566406 0.069704
2442.460938 0.067124
2441.723633 0.065788
2441.606445 0.067109
2440.879883 0.063546
2440.751953 0.065993
2440.037109 0.064648
2439.897461 0.070925
2439.193359 0.069651
2439.041992 0.060465
2438.349609 0.065181
2438.186523 0.069243
2437.505859 0.067953
2437.331055 0.062634
2436.662109 0.070168
2436.475586 0.065914
2435.817383 0.072939
2435.619141 0.069743
2434.973633 0.064575
2434.763672 0.059295
2434.128906 0.068458
2433.907227 0.065867
2433.284180 0.063437
2433.050781 0.069144
2432.439453 0.069545
2432.194336 0.061447
2431.593750 0.061744
2431.336914 0.065272
2430.749023 0.065069
2430.479492 0.060869
2429.903320 0.067281
2429.622070 0.067433
2429.058594 0.064488
2428.764648 0.070158
2428.212891 0.069479
2427.907227 0.064113
2427.367188 0.065575
2427.048828 0.060263
2426.520508 0.068896
2426.191406 0.054771
2425.674805 0.066661
2425.333008 0.069543
2424.828125 0.062205
2424.473633 0.061862
2423.982422 0.064970
2423.615234 0.065678
2423.135742 0.066068
2422.755859 0.063474
2422.289063 0.063280
2421.897461 0.066194
2421.441406 0.061603
2421.038086 0.059615
2420.594727 0.065475
2420.177734 0.061241
2419.747070 0.063798
2419.318359 0.063412
2418.900391 0.063231
2418.458008 0.063397
2418.052734 0.073201
2417.597656 0.062289
2417.205078 0.065425
2416.737305 0.066098
2416.356445 0.067630
2415.876953 0.055705
2415.508789 0.060966
2415.015625 0.062244
2414.660156 0.065941
2414.155273 0.061683
2413.812500 0.068699
2413.293945 0.061122
2412.963867 0.064254
2412.115234 0.066457
2411.266602 0.065337
2410.416992 0.066432
2409.568359 0.060884
2408.718750 0.065299
2407.869141 0.065840
2407.019531 0.063615
2406.169922 0.071345
2405.319336 0.063037
2404.469727 0.066342
2403.619141 0.066882
2402.768555 0.064659
2401.917969 0.069619
2401.066406 0.062976
2400.215820 0.070144
2399.364258 0.065161
2398.513672 0.071774
2397.662109 0.062376
2396.810547 0.070642
2395.958008 0.071180
2395.106445 0.067305
2394.253906 0.071153
2393.402344 0.068933
2392.549805 0.064509
2391.697266 0.068355
2390.843750 0.061177
2389.991211 0.067777
2389.137695 0.069417
2388.284180 0.064446
2387.430664 0.066637
2386.577148 0.061668
2385.723633 0.066611
2384.869141 0.066598
2384.015625 0.063283
2383.161133 0.058319
2382.306641 0.072610
2381.452148 0.071496
2380.597656 0.068732
2379.742188 0.069819
2378.886719 0.067606
2378.032227 0.078034
2377.176758 0.073624
2376.320313 0.068116
2375.464844 0.060963
2374.609375 0.068639
2373.752930 0.065331
2372.896484 0.065867
2372.040039 0.073538
2371.183594 0.073523
2370.326172 0.070218
2369.469727 0.070204
2368.612305 0.066352
2367.754883 0.070176
2366.897461 0.075096
2366.040039 0.067957
2365.182617 0.075067
2364.324219 0.069574
2363.465820 0.069560
2362.607422 0.068451
2361.749023 0.075008
2360.890625 0.068972
2360.031250 0.062391
2359.172852 0.068397
2358.313477 0.067290
2357.454102 0.070558
2356.594727 0.072185
2355.735352 0.069984
2354.875000 0.070517
2354.015625 0.068863
2353.155273 0.062293
2352.294922 0.072661
2351.434570 0.069369
2350.573242 0.075363
2349.712891 0.070434
2348.851563 0.066599
2347.990234 0.071498
2347.128906 0.075303
2346.267578 0.075834
2345.406250 0.074728
2344.543945 0.067624
2343.681641 0.067065
2342.819336 0.070868
2341.957031 0.061588
2341.094727 0.074654
2340.232422 0.082812
2339.369141 0.077348
2338.505859 0.063174
2337.642578 0.068606
2336.779297 0.077847
2335.916016 0.070212
2335.051758 0.070742
2334.188477 0.075625
2333.324219 0.070170
2332.459961 0.072875
2331.595703 0.076123
2330.730469 0.078826
2329.866211 0.077724
2329.000977 0.079882
2328.135742 0.074976
2327.270508 0.077678
2326.405273 0.072774
2325.540039 0.074389
2324.673828 0.072745
2323.807617 0.074902
2322.941406 0.072717
2322.075195 0.078670
2321.208984 0.079739
2320.341797 0.074300
2319.475586 0.081334
2318.608398 0.070476
2317.741211 0.076424
2316.874023 0.076409
2316.005859 0.074226
2315.138672 0.070961
2314.270508 0.072572
2313.402344 0.075265
2312.534180 0.072543
2311.666016 0.074694
2310.797852 0.070350
2309.928711 0.076287
2309.059570 0.075190
2308.190430 0.075175
2307.321289 0.071375
2306.452148 0.077848
2305.582031 0.075130
2304.712891 0.079979
2303.842773 0.074019
2302.972656 0.081567
2302.102539 0.076690
2301.231445 0.071815
2300.361328 0.081518
2299.490234 0.078263
2298.619141 0.079867
2297.748047 0.072297
2296.876953 0.076059
2296.004883 0.077122
2295.133789 0.077646
2294.261719 0.074396
2293.389648 0.080310
2292.517578 0.083527
2291.645508 0.081355
2290.772461 0.081877
2289.899414 0.075937
2289.027344 0.078075
2288.153320 0.068908
2287.280273 0.077506
2286.407227 0.071571
2285.533203 0.072095
2284.660156 0.080687
2283.786133 0.074755
2282.911133 0.078503
2282.037109 0.081713
2281.163086 0.081159
2280.288086 0.075769
2279.413086 0.078440
2278.538086 0.077350
2277.663086 0.077872
2276.787109 0.086447
2275.912109 0.081598
2275.036133 0.079435
2274.160156 0.085321
2273.284180 0.078330
2272.408203 0.077241
2271.531250 0.085806
2270.655273 0.077210
2269.778320 0.083091
2268.901367 0.082002
2268.024414 0.074484
2267.146484 0.078755
2266.269531 0.086773
2265.391602 0.083543
2264.513672 0.083526
2263.635742 0.080297
2262.757813 0.079210
2261.878906 0.077589
2261.000000 0.081318
2260.122070 0.079162
2259.243164 0.076472
2258.363281 0.090358
2257.484375 0.080183
2256.604492 0.080167
2255.725586 0.087097
2254.845703 0.083874
2253.965820 0.075845
2253.084961 0.077966
2252.205078 0.082755
2251.324219 0.079536
2250.443359 0.087525
2249.562500 0.081104
2248.681641 0.085356
2247.800781 0.077338
2246.918945 0.077855
2246.037109 0.088502
2245.155273 0.076225
2244.273438 0.083670
2243.391602 0.083120
2242.509766 0.079907
2241.626953 0.077760
2240.744141 0.081472
2239.861328 0.085715
2238.978516 0.079842
2238.094727 0.081422
2237.211914 0.080342
2236.328125 0.084049
2235.444336 0.081904
2234.560547 0.084015
2233.675781 0.080808
2232.791992 0.079728
2231.907227 0.080775
2231.022461 0.081821
2230.137695 0.071180
2229.252930 0.079663
2228.368164 0.079647
2227.482422 0.089186
2226.596680 0.079084
2225.710938 0.082782
2224.825195 0.083826
2223.938477 0.079035
2223.052734 0.085383
2222.166016 0.079003
2221.279297 0.082167
2220.392578 0.079500
2219.505859 0.082663
2218.618164 0.086355
2217.731445 0.086867
2216.843750 0.089497
2215.956055 0.084714
2215.068359 0.089460
2214.179688 0.083620
2213.291016 0.088365
2212.403320 0.087818
2211.514648 0.077222
2210.625977 0.089369
2209.736328 0.085649
2208.847656 0.084575
2207.958008 0.088257
2207.068359 0.081898
2206.178711 0.081881
2205.289063 0.082392
2204.398438 0.082904
2203.507813 0.079719
2202.618164 0.076536
2201.727539 0.086546
2200.835938 0.080725
2199.945313 0.089676
2199.053711 0.084383
2198.162109 0.085948
2197.270508 0.085930
2196.378906 0.084858
2195.487305 0.083260
2194.594727 0.084823
2193.703125 0.089547
2192.810547 0.086895
2191.917969 0.076346
2191.024414 0.085280
2190.131836 0.081052
2189.238281 0.077352
2188.344727 0.089436
2187.451172 0.086261
2186.557617 0.085718
2185.664063 0.085174
2184.769531 0.096721
2183.875000 0.087767
2182.980469 0.088274
2182.085938 0.086680
2181.191406 0.085611
2180.295898 0.089794
2179.400391 0.086626
2178.504883 0.083983
2177.609375 0.077669
2176.713867 0.084998
2175.817383 0.094423
2174.921875 0.084963
2174.025391 0.096481
2173.128906 0.080734
2172.231445 0.087531
2171.334961 0.088560
2170.437500 0.092733
2169.540039 0.083809
2168.642578 0.089553
2167.745117 0.088487
2166.847656 0.084281
2165.949219 0.088973
2165.050781 0.083722
2164.152344 0.083182
2163.253906 0.084211
2162.354492 0.086808
2161.456055 0.084698
2160.556641 0.090431
2159.657227 0.081527
2158.757813 0.088825
2157.858398 0.083583
2156.958008 0.086177
2156.057617 0.086159
2155.157227 0.093972
2154.256836 0.085601
2153.356445 0.082974
2152.456055 0.097044
2151.554688 0.093894
2150.653320 0.091266
2149.751953 0.087597
2148.850586 0.095920
2147.948242 0.091209
2147.045898 0.095880
2146.144531 0.097423
2145.242188 0.084381
2144.338867 0.095820
2143.436523 0.092676
2142.533203 0.085889
2141.629883 0.088994
2140.726563 0.085333
2139.823242 0.087916
2138.919922 0.094139
2138.015625 0.092039
2137.111328 0.091500
2136.207031 0.094600
2135.302734 0.104973
2134.398438 0.091962
2133.493164 0.096099
2132.588867 0.094001
2131.683594 0.090866
2130.778320 0.098634
2129.872070 0.099651
2128.966797 0.096517
2128.060547 0.101684
2127.154297 0.100107
2126.248047 0.106309
2125.341797 0.104212
2124.434570 0.101080
2123.527344 0.093804
2122.620117 0.102592
2121.712891 0.104643
2120.805664 0.107210
2119.897461 0.098385
2118.990234 0.106130
2118.082031 0.100414
2117.173828 0.107637
2116.265625 0.104510
2115.356445 0.102419
2114.447266 0.096192
2113.539063 0.105995
2112.628906 0.100804
2111.719727 0.096131
2110.810547 0.105928
2109.900391 0.101256
2108.990234 0.101751
2108.080078 0.092951
2107.169922 0.098094
2106.258789 0.111494
2105.348633 0.102181
2104.437500 0.099064
2103.526367 0.099043
2102.615234 0.089739
2101.703125 0.088688
2100.791992 0.092278
2099.879883 0.090712
2098.967773 0.095331
2098.055664 0.094280
2097.142578 0.101987
2096.230469 0.096300
2095.317383 0.101943
2094.404297 0.103466
2093.490234 0.101900
2092.577148 0.099306
2091.663086 0.106486
2090.750000 0.104921
2089.835938 0.089472
2088.920898 0.098193
2088.006836 0.096116
2087.091797 0.098665
2086.177734 0.099158
2085.262695 0.099650
2084.346680 0.095521
2083.431641 0.100635
2082.515625 0.100100
2081.600586 0.103158
2080.684570 0.104162
2079.767578 0.096958
2078.851563 0.098476
2077.934570 0.096916
2077.017578 0.108175
2076.100586 0.101488
2075.183594 0.094804
2074.266602 0.101445
2073.348633 0.096813
2072.430664 0.096792
2071.512695 0.099332
2070.594727 0.097775
2069.676758 0.107478
2068.757813 0.096709
2067.838867 0.096177
2066.919922 0.099737
2066.000977 0.103295
2065.082031 0.104806
2064.162109 0.087916
2063.242188 0.098629
2062.322266 0.098097
2061.402344 0.110335
2060.481445 0.096523
2059.561523 0.109267
2058.640625 0.104649
2057.719727 0.094929
2056.798828 0.103583
2055.876953 0.105602
2054.956055 0.098948
2054.034180 0.102497
2053.112305 0.107063
2052.189453 0.097865
2051.267578 0.115170
2050.344727 0.099351
2049.421875 0.099839
2048.499023 0.099308
2047.576172 0.104888
2046.652344 0.099266
2045.729492 0.100771
2044.805664 0.098205
2043.881836 0.096149
2042.957031 0.100706
2042.033203 0.093056
2041.108398 0.106763
2040.183594 0.106232
2039.258789 0.107225
2038.333984 0.105169
2037.408203 0.111242
2036.483398 0.098522
2035.557617 0.110178
2034.630859 0.103555
2033.705078 0.107086
2032.778320 0.101988
2031.852539 0.105517
2030.925781 0.097976
2030.818359 0.107523
2029.999023 0.106098
2029.892578 0.108514
2029.071289 0.116231
2028.965820 0.112546
2028.144531 0.103017
2028.040039 0.113535
2027.216797 0.110103
2027.113281 0.113511
2026.289063 0.112621
2026.186523 0.106900
2025.361328 0.109559
2025.260742 0.117513
2024.432617 0.107512
2024.333008 0.115462
2023.503906 0.099381
2023.406250 0.105817
2022.576172 0.102913
2022.479492 0.097695
2021.647461 0.101881
2021.551758 0.107795
2020.717773 0.103891
2020.624023 0.109290
2019.789063 0.106407
2019.696289 0.103702
2018.859375 0.110948
2018.768555 0.112277
2017.929688 0.096240
2017.840820 0.108713
2017.000000 0.102807
2016.913086 0.104645
2016.070313 0.104309
2015.984375 0.109171
2015.139648 0.103785
2015.055664 0.110663
2014.209961 0.103261
2014.126953 0.109123
2013.279297 0.100206
2013.198242 0.106574
2012.348633 0.108285
2012.269531 0.114125
2011.416992 0.105231
2011.340820 0.108042
2010.486328 0.104201
2010.411133 0.111551
2009.554688 0.105701
2009.482422 0.115060
2008.623047 0.108716
2008.552734 0.111503
2007.691406 0.106170
2007.623047 0.111983
2006.759766 0.106657
2006.692383 0.113471
2005.827148 0.107649
2005.762695 0.111933
2004.894531 0.110663
2004.833008 0.108380
2003.961914 0.113675
2003.902344 0.113396
2003.029297 0.101532
2002.971680 0.119418
2002.096680 0.116161
2002.041016 0.113850
2001.163086 0.104022
2001.110352 0.113825
2000.229492 0.108042
2000.178711 0.111786
1999.295898 0.111557
1999.248047 0.117299
1998.362305 0.107500
1998.316406 0.112240
1997.427734 0.108995
1997.384766 0.111712
1996.494141 0.112003
1996.453125 0.111185
1995.559570 0.108957
1995.521484 0.114681
1994.625000 0.118017
1994.589844 0.111136
1993.689453 0.112953
1993.657227 0.119156
1992.754883 0.108396
1992.724609 0.115108
1991.819336 0.099808
1991.792969 0.120108
1990.883789 0.109366
1990.860352 0.114053
1989.948242 0.106324
1989.926758 0.117041
1989.012695 0.110839
1988.994141 0.115509
1988.076172 0.113339
1988.061523 0.111969
1987.139648 0.109793
1987.127930 0.102908
1986.203125 0.112795
1986.194336 0.110414
1985.266602 0.111768
1985.260742 0.116912
1984.330078 0.117286
1984.327148 0.117890
1983.392578 0.104180
1983.392578 0.109839
1982.458984 0.123283
1982.455078 0.114327
1981.524414 0.111187
1981.517578 0.117310
1980.589844 0.114185
1980.580078 0.109766
1979.655273 0.113159
1979.641602 0.113249
1978.720703 0.115150
1978.703125 0.123745
1977.786133 0.120660
1977.765625 0.119210
1976.850586 0.106062
1976.826172 0.111171
1975.915039 0.108556
1975.887695 0.114651
1974.979492 0.112556
1974.948242 0.114125
1974.043945 0.131627
1974.009766 0.111597
1973.108398 0.114023
1973.070313 0.120078
1972.172852 0.114003
1972.130859 0.122552
1971.236328 0.122017
1971.190430 0.116524
1970.299805 0.124003
1970.250000 0.118998
1969.363281 0.118962
1969.310547 0.124970
1968.426758 0.114926
1968.370117 0.127441
1967.490234 0.121930
1967.428711 0.118419
1966.553711 0.110871
1966.488281 0.112898
1965.616211 0.127404
1965.546875 0.118366
1964.678711 0.120862
1964.605469 0.119838
1963.741211 0.115324
1963.664063 0.130794
1962.803711 0.116306
1962.722656 0.123278
1961.866211 0.115283
1961.780273 0.112772
1960.928711 0.113258
1960.837891 0.123223
1959.990234 0.116244
1959.895508 0.118707
1959.051758 0.121734
1958.953125 0.119677
1958.113281 0.118206
1958.010742 0.112172
1957.174805 0.122691
1957.067383 0.115636
1956.236328 0.117162
1956.124023 0.116109
1955.296875 0.126151
1955.180664 0.124054
1954.357422 0.116619
1954.237305 0.122034
1953.418945 0.108091
1953.292969 0.122007
1952.479492 0.116077
1952.349609 0.118992
1951.539063 0.113554
1951.405273 0.135889
1950.599609 0.119036
1950.460938 0.120929
1949.660156 0.122514
1949.515625 0.124883
1948.719727 0.117493
1948.571289 0.124357
1947.779297 0.122970
1947.625977 0.117367
1946.838867 0.125447
1946.680664 0.129273
1945.898438 0.124924
1945.735352 0.119799
1944.957031 0.123902
1944.789063 0.127227
1944.016602 0.119884
1943.842773 0.121236
1943.075195 0.122858
1942.896484 0.113261
1942.133789 0.124833
1941.950195 0.124658
1941.192383 0.132299
1941.003906 0.134064
1940.250977 0.133274
1940.056641 0.121623
1939.308594 0.120773
1939.110352 0.130033
1938.366211 0.117757
1938.163086 0.126034
1937.424805 0.122225
1937.215820 0.114596
1936.482422 0.126692
1936.267578 0.136393
1935.539063 0.121183
1935.319336 0.126445
1934.596680 0.114679
1934.372070 0.129391
1933.654297 0.124130
1933.422852 0.125892
1932.710938 0.127098
1932.474609 0.126359
1931.767578 0.127573
1931.526367 0.126330
1930.824219 0.133529
1930.577148 0.135217
1929.880859 0.117065
1929.627930 0.125778
1928.936523 0.123518
1928.678711 0.132186
1927.993164 0.121006
1927.728516 0.127206
1927.048828 0.121979
1926.779297 0.136085
1926.104492 0.135895
1925.829102 0.128633
1925.160156 0.120939
1924.878906 0.129593
1924.215820 0.126391
1923.928711 0.123629
1923.270508 0.125870
1922.977539 0.125084
1922.326172 0.132313
1922.026367 0.127527
1921.380859 0.127315
1921.075195 0.127004
1920.435547 0.120331
1920.124023 0.133892
1919.490234 0.125777
1919.172852 0.123488
1918.543945 0.126251
1918.220703 0.130868
1917.598633 0.128215
1917.268555 0.123432
1916.652344 0.128191
1916.316406 0.128834
1915.706055 0.126677
1915.364258 0.129298
1914.759766 0.132117
1914.411133 0.124335
1913.813477 0.131596
1913.458984 0.129239
1912.866211 0.136537
1912.505859 0.134634
1911.919922 0.135022
1911.552734 0.145944
1910.972656 0.128545
1910.598633 0.135066
1910.025391 0.133484
1909.645508 0.131585
1909.078125 0.129490
1908.691406 0.137468
1908.129883 0.119049
1907.737305 0.124136
1907.182617 0.122994
1906.782227 0.138882
1906.234375 0.121980
1905.828125 0.131465
1905.286133 0.124436
1904.873047 0.119620
1904.337891 0.133335
1903.917969 0.128451
1903.389648 0.136779
1902.962891 0.131374
1902.440430 0.140222
1902.006836 0.134296
1901.492188 0.134251
1901.051758 0.133281
1900.542969 0.139674
1900.095703 0.137184
1899.593750 0.123801
1899.139648 0.137153
1898.644531 0.126749
1898.183594 0.133681
1897.695313 0.134645
1897.226563 0.128245
1896.745117 0.121752
1896.269531 0.128707
1895.794922 0.136574
1895.312500 0.128677
1894.844727 0.128138
1894.355469 0.130120
1893.894531 0.140975
1893.398438 0.127145
1892.944336 0.124628
1892.440430 0.132024
1891.994141 0.129549
1891.482422 0.131993
1891.042969 0.132986
1890.524414 0.135887
1890.091797 0.140375
1889.566406 0.134384
1889.140625 0.131947
1888.607422 0.139747
1888.189453 0.121052
1887.648438 0.123537
1887.238281 0.126463
1886.689453 0.135762
1886.286133 0.132860
1885.730469 0.139650
1885.334961 0.132342
1884.770508 0.132759
1884.382813 0.136760
1883.811523 0.136647
1883.430664 0.133279
1882.851563 0.142981
1882.477539 0.137202
1881.891602 0.128261
1881.525391 0.127801
1880.930664 0.137531
1880.572266 0.129257
1879.970703 0.136520
1879.619141 0.138111
1879.009766 0.143337
1878.666016 0.129208
1878.048828 0.134011
1877.712891 0.139044
1877.086914 0.134469
1876.759766 0.140497
1876.125977 0.135416
1875.805664 0.133570
1875.164063 0.130496
1874.852539 0.138965
1874.202148 0.129977
1873.898438 0.131549
1873.240234 0.136786
1872.943359 0.132509
1872.277344 0.138220
1871.989258 0.133469
1871.315430 0.127445
1871.035156 0.137875
1870.352539 0.133274
1870.080078 0.128495
1869.389648 0.133242
1869.125000 0.130931
1868.425781 0.137603
1868.169922 0.130907
1867.462891 0.132692
1867.214844 0.126453
1866.499023 0.130223
1866.258789 0.127905
1865.535156 0.133118
1865.303711 0.135258
1864.570313 0.127724
1864.347656 0.134249
1863.606445 0.141828
1863.391602 0.128815
1862.641602 0.132050
1862.435547 0.126333
1861.676758 0.130557
1861.479492 0.139578
1860.711914 0.136371
1860.522461 0.134147
1859.746094 0.137069
1859.565430 0.138287
1858.781250 0.146866
1858.608398 0.143123
1857.815430 0.136034
1857.651367 0.137735
1856.849609 0.138463
1856.694336 0.133324
1855.882813 0.135000
1855.736328 0.139616
1854.916992 0.140373
1854.779297 0.131802
1853.950195 0.131513
1853.821289 0.140037
1852.983398 0.150622
1852.863281 0.141462
1852.015625 0.149122
1851.905273 0.136083
1851.048828 0.149093
1850.946289 0.134593
1850.081055 0.150536
1849.988281 0.136019
1849.113281 0.145114
1849.029297 0.137443
1848.145508 0.138224
1848.070313 0.151492
1847.176758 0.142608
1847.111328 0.141747
1846.208008 0.146010
1846.151367 0.147052
1845.239258 0.142553
1845.192383 0.145077
1844.270508 0.146444
1844.232422 0.148923
1843.301758 0.148374
1843.272461 0.154223
1842.332031 0.146877
1842.312500 0.150307
1841.362305 0.142443
1841.352539 0.140092
1840.392578 0.147309
1840.391602 0.152174
1839.430664 0.142877
1839.422852 0.145355
1838.470703 0.144317
1838.452148 0.153555
1837.508789 0.145267
1837.481445 0.147707
1836.547852 0.153064
1836.510742 0.161229
1835.586914 0.140322
1835.540039 0.159255
1834.625000 0.158870
1834.568359 0.159701
1833.663086 0.161283
1833.597656 0.144180
1832.701172 0.142684
1832.625000 0.149467
1831.739258 0.158289
1831.653320 0.156201
1830.777344 0.166074
1830.681641 0.157614
1829.814453 0.157740
1829.708984 0.165794
1828.851563 0.164545
1828.736328 0.156573
1827.888672 0.165977
1827.763672 0.164748
1826.925781 0.168873
1826.790039 0.162294
1825.962891 0.166401
1825.817383 0.156460
1824.999023 0.159050
1824.843750 0.169941
1824.035156 0.154629
1823.869141 0.165556
1823.071289 0.161914
1822.895508 0.162621
1822.107422 0.167734
1821.920898 0.159687
1821.143555 0.169164
1820.947266 0.157237
1820.178711 0.152559
1819.971680 0.166844
1819.214844 0.157402
1818.997070 0.171143
1818.250000 0.165167
1818.021484 0.164354
1817.285156 0.161238
1817.046875 0.155641
1816.319336 0.168999
1816.070313 0.159457
1815.354492 0.158740
1815.094727 0.163753
1814.388672 0.151893
1814.119141 0.156973
1813.422852 0.149917
1813.142578 0.156935
1812.457031 0.147941
1812.166016 0.159785
1811.491211 0.150345
1811.188477 0.148679
1810.525391 0.158585
1810.211914 0.152492
1809.558594 0.158554
1809.234375 0.166883
1808.591797 0.154633
1808.256836 0.154822
1807.625000 0.157519
1807.279297 0.158150
1806.658203 0.143878
1806.300781 0.163398
1805.690430 0.153570
1805.322266 0.151346
1804.723633 0.151110
1804.343750 0.158995
1803.755859 0.152052
1803.365234 0.153194
1802.788086 0.152994
1802.386719 0.156518
1801.820313 0.159762
1801.407227 0.145440
1800.851563 0.158274
1800.427734 0.166519
1799.883789 0.158243
1799.448242 0.154964
1798.915039 0.156270
1798.467773 0.155406
1797.946289 0.152358
1797.488281 0.170713
1796.977539 0.161060
1796.507813 0.158207
1796.007813 0.162968
1795.527344 0.151937
1795.039063 0.152753
1794.545898 0.149984
1794.069336 0.157086
1793.564453 0.159049
1793.099609 0.162872
1792.583008 0.169068
1792.129883 0.157993
1791.601563 0.158014
1791.160156 0.157478
1790.620117 0.163720
1790.189453 0.164713
1789.637695 0.157458
1789.218750 0.157900
1788.655273 0.152635
1788.248047 0.162227
1787.672852 0.166470
1787.277344 0.173331
1786.690430 0.155907
1786.306641 0.165551
1785.707031 0.151566
1785.334961 0.162615
1784.723633 0.163957
1784.364258 0.171776
1783.740234 0.166784
1783.392578 0.161099
1782.756836 0.163876
1782.420898 0.177512
1781.772461 0.159060
1781.448242 0.173608
1780.788086 0.177644
1780.476563 0.161970
1779.803711 0.164233
1779.503906 0.174023
1778.819336 0.171352
1778.531250 0.171089
1777.833984 0.167969
1777.558594 0.164290
1776.848633 0.159818
1776.585938 0.173919
1775.863281 0.171702
1775.612305 0.172919
1774.877930 0.165938
1774.638672 0.167572
1773.891602 0.169234
1773.666016 0.182989
1772.905273 0.172528
1772.691406 0.181022
1771.918945 0.172009
1771.717773 0.175677
1770.931641 0.177089
1770.744141 0.168155
1769.945313 0.188150
1769.769531 0.171923
1768.958008 0.183289
1768.794922 0.181879
1767.970703 0.183253
1767.820313 0.178978
1766.982422 0.183216
1766.845703 0.173223
1765.995117 0.175467
1765.870117 0.172704
1765.006836 0.187963
1764.894531 0.189785
1764.018555 0.186962
1763.919922 0.179276
1763.029297 0.187406
1762.944336 0.182084
1762.041016 0.195557
1761.967773 0.181563
1761.051758 0.181071
1760.992188 0.190546
1760.062500 0.195960
1760.015625 0.174822
1759.072266 0.196402
1759.039063 0.190451
1758.083008 0.191550
1758.062500 0.189454
1757.092773 0.190068
1757.085938 0.186558
1756.108398 0.190030
1756.101563 0.193630
1755.131836 0.191916
1755.111328 0.195480
1754.154297 0.200053
1754.120117 0.187367
1753.176758 0.192320
1753.128906 0.190639
1752.198242 0.190839
1751.220703 0.193685
1750.242188 0.207581
1749.263672 0.183038
1748.285156 0.185883
1747.306641 0.196891
1746.327148 0.196371
1745.348633 0.197292
1744.369141 0.191973
1743.389648 0.198172
1742.409180 0.192375
1741.429688 0.197133
1740.449219 0.187023
1739.468750 0.191780
1738.488281 0.195097
1737.507813 0.189306
1736.526367 0.199810
1735.544922 0.197853
1734.563477 0.201166
1733.582031 0.203998
1732.600586 0.197254
1731.618164 0.190513
1730.636719 0.190953
1729.654297 0.200484
1728.671875 0.183222
1727.688477 0.200403
1726.706055 0.194624
1725.722656 0.193629
1724.739258 0.194546
1723.755859 0.201675
1722.771484 0.186344
1721.788086 0.195383
1720.803711 0.195343
1719.819336 0.191484
1718.834961 0.189535
1717.850586 0.183769
1716.865234 0.193753
1715.879883 0.200394
1714.894531 0.200353
1713.909180 0.185050
1712.923828 0.197887
1711.937500 0.187359
1710.951172 0.197330
1709.964844 0.181564
1708.978516 0.189150
1707.991211 0.198639
1707.004883 0.201456
1706.017578 0.208081
1705.030273 0.194233
1704.042969 0.204665
1703.054688 0.192726
1702.066406 0.201251
1701.078125 0.207869
1700.089844 0.196888
1699.101563 0.197324
1698.113281 0.202513
1697.124023 0.199619
1696.134766 0.210983
1695.145508 0.200963
1694.155273 0.201397
1693.166016 0.207530
1692.175781 0.205588
1691.185547 0.197951
1690.195313 0.198859
1689.205078 0.205936
1688.213867 0.200676
1687.222656 0.195891
1686.231445 0.193954
1685.240234 0.202923
1684.249023 0.201933
1683.256836 0.190044
1682.264648 0.190005
1681.272461 0.193282
1680.280273 0.198452
1679.287109 0.186099
1678.294922 0.192689
1677.301758 0.199276
1676.308594 0.198762
1675.315430 0.188312
1674.321289 0.194896
1673.327148 0.202896
1672.333008 0.194816
1671.338867 0.193830
1670.344727 0.197572
1669.349609 0.200839
1668.355469 0.202687
1667.360352 0.197922
1666.365234 0.195047
1665.369141 0.200673
1664.374023 0.198744
1663.377930 0.198703
1662.381836 0.198662
1661.384766 0.207113
1660.388672 0.199051
1659.391602 0.187220
1658.395508 0.204155
1657.397461 0.198456
1656.400391 0.197473
1655.403320 0.207798
1654.405273 0.200218
1653.407227 0.198292
1652.409180 0.213791
1651.411133 0.207626
1650.412109 0.199111
1649.413086 0.196716
1648.414063 0.205615
1647.415039 0.209806
1646.416016 0.211644
1645.416016 0.216773
1644.416016 0.211556
1643.416016 0.212923
1642.416016 0.207709
1641.415039 0.211425
1640.415039 0.210441
1639.414063 0.217442
1638.413086 0.217867
1637.411133 0.205146
1636.410156 0.217776
1635.408203 0.222423
1634.406250 0.217216
1633.404297 0.227021
1632.402344 0.230726
1631.399414 0.230209
1630.396484 0.223129
1629.393555 0.220740
1628.390625 0.229596
1627.387695 0.238918
1626.383789 0.217791
1625.379883 0.225238
1624.375977 0.232214
1623.372070 0.239187
1622.367188 0.225097
1621.362305 0.236279
1620.357422 0.227810
1619.352539 0.221683
1618.347656 0.242210
1617.341797 0.230940
1616.335938 0.242109
1615.330078 0.233647
1614.324219 0.239672
1613.318359 0.244293
1612.311523 0.235835
1611.304688 0.227849
1610.297852 0.246006
1609.291016 0.245955
1608.283203 0.256169
1607.275391 0.237455
1606.267578 0.243935
1605.259766 0.243417
1604.251953 0.249893
1603.243164 0.245646
1602.234375 0.235808
1601.225586 0.239020
1600.216797 0.252013
1599.207031 0.241248
1598.198242 0.254701
1597.188477 0.246268
1596.178711 0.240165
1595.167969 0.255471
1594.158203 0.252160
1593.147461 0.243270
1592.136719 0.240893
1591.125977 0.243167
1590.114258 0.242186
1589.103516 0.249571
1588.091797 0.240691
1587.080078 0.233207
1586.067383 0.244305
1585.055664 0.234502
1584.042969 0.233524
1583.030273 0.244614
1582.017578 0.236210
1581.003906 0.240336
1579.991211 0.224977
1578.977539 0.236988
1577.963867 0.236938
1576.949219 0.238278
1575.935547 0.240082
1574.920898 0.229837
1573.906250 0.227935
1572.891602 0.234372
1571.876953 0.223208
1570.861328 0.234273
1569.845703 0.230983
1568.830078 0.229083
1567.814453 0.234587
1566.797852 0.227135
1565.782227 0.238650
1564.765625 0.239524
1563.749023 0.233926
1562.731445 0.222321
1561.714844 0.231054
1560.697266 0.233315
1559.679688 0.230494
1558.662109 0.229521
1557.643555 0.208234
1556.625000 0.222961
1555.607422 0.223837
1554.587891 0.234402
1553.569336 0.217745
1552.549805 0.229229
1551.531250 0.228258
1550.511719 0.224983
1549.491211 0.206958
1548.471680 0.217974
1547.451172 0.227603
1546.430664 0.217882
1545.410156 0.217835
1544.389648 0.228379
1543.368164 0.231553
1542.346680 0.222299
1541.325195 0.226853
1540.303711 0.221284
1539.282227 0.224456
1538.259766 0.216591
1537.237305 0.221142
1536.214844 0.197653
1535.191406 0.221507
1534.168945 0.221920
1533.145508 0.214982
1532.122070 0.219529
1531.098633 0.228206
1530.074219 0.235502
1529.050781 0.213880
1528.026367 0.233566
1527.000977 0.212413
1525.976563 0.212367
1524.951172 0.219659
1523.926758 0.216861
1522.901367 0.206730
1521.875000 0.211269
1520.849609 0.213973
1519.823242 0.218966
1518.796875 0.217545
1517.770508 0.211088
1516.743164 0.224776
1515.716797 0.223355
1514.689453 0.223765
1513.662109 0.214567
1512.634766 0.235104
1511.606445 0.229566
1510.578125 0.235460
1509.549805 0.234953
1508.521484 0.219821
1507.493164 0.227998
1506.463867 0.235258
1505.434570 0.237948
1504.405273 0.217349
1503.375977 0.233737
1502.345703 0.229122
1501.315430 0.229073
1500.285156 0.230849
1499.254883 0.235360
1498.223633 0.237590
1497.193359 0.234347
1496.162109 0.229738
1495.130859 0.237892
1494.098633 0.238296
1493.067383 0.232778
1492.035156 0.235916
1491.002930 0.239508
1489.969727 0.244009
1488.937500 0.238950
1487.904297 0.230252
1486.871094 0.235662
1485.837891 0.233337
1484.803711 0.235560
1483.770508 0.229144
1482.736328 0.239549
1481.702148 0.234953
1480.666992 0.240354
1479.632813 0.250750
1478.597656 0.239796
1477.562500 0.254728
1476.527344 0.248772
1475.491211 0.234194
1474.455078 0.240496
1473.418945 0.230010
1472.382813 0.242206
1471.346680 0.247142
1470.309570 0.236207
1469.272461 0.242502
1468.235352 0.236105
1467.198242 0.238319
1466.160156 0.240532
1465.122070 0.249991
1464.083984 0.245861
1463.045898 0.245808
1462.006836 0.249375
1460.968750 0.234389
1459.929688 0.237052
1458.889648 0.246047
1457.850586 0.242828
1456.810547 0.249104
1455.771484 0.242722
1454.730469 0.244025
1453.690430 0.260237
1452.649414 0.248888
1451.609375 0.243414
1450.568359 0.252391
1449.526367 0.257302
1448.485352 0.264015
1447.443359 0.259445
1446.401367 0.251269
1445.359375 0.256626
1444.316406 0.252512
1443.274414 0.258768
1442.231445 0.260965
1441.188477 0.278032
1440.144531 0.264005
1439.101563 0.276559
1438.057617 0.269294
1437.013672 0.270135
1435.968750 0.281779
1434.924805 0.282168
1433.879883 0.293804
1432.834961 0.311733
1431.790039 0.301771
1430.744141 0.296759
1429.698242 0.318271
1428.653320 0.310112
1427.606445 0.330713
1426.560547 0.324801
1425.513672 0.333263
1424.466797 0.326455
1423.419922 0.332219
1422.373047 0.325414
1421.325195 0.325342
1420.277344 0.320784
1419.229492 0.313537
1418.181641 0.318401
1417.132813 0.323711
1416.084961 0.300331
1415.036133 0.314606
1413.986328 0.315881
1412.937500 0.322531
1411.887695 0.317533
1410.837891 0.324180
1409.788086 0.339777
1408.738281 0.336569
1407.687500 0.331125
1406.636719 0.335973
1405.585938 0.320245
1404.534180 0.325987
1403.483398 0.332622
1402.431641 0.319139
1401.379883 0.315047
1400.327148 0.310509
1399.275391 0.310441
1398.222656 0.308139
1397.169922 0.315662
1396.117188 0.308003
1395.063477 0.311059
1394.009766 0.301621
1392.956055 0.316721
1391.902344 0.314867
1390.848633 0.308109
1389.793945 0.320523
1388.739258 0.307972
1387.684570 0.326173
1386.628906 0.339911
1385.574219 0.334046
1384.518555 0.329964
1383.462891 0.350815
1382.406250 0.348067
1381.350586 0.357780
1380.293945 0.373717
1379.237305 0.372299
1378.179688 0.367325
1377.123047 0.385027
1376.065430 0.381386
1375.007813 0.399522
1373.949219 0.402099
1372.891602 0.379799
1371.833008 0.365947
1370.774414 0.380074
1369.715820 0.359569
1368.656250 0.361265
1367.596680 0.339886
1366.537109 0.332269
1365.477539 0.311349
1364.417969 0.302411
1363.357422 0.298354
1362.296875 0.301833
1361.236328 0.289802
1360.174805 0.278218
1359.113281 0.287458
1358.052734 0.279865
1356.990234 0.273605
1355.928711 0.280626
1354.866211 0.276138
1353.803711 0.279615
1352.741211 0.275572
1351.678711 0.283912
1350.615234 0.285617
1349.551758 0.276713
1348.488281 0.288583
1347.424805 0.277031
1346.360352 0.288012
1345.295898 0.275140
1344.231445 0.285234
1343.166992 0.271485
1342.101563 0.285106
1341.036133 0.274011
1339.970703 0.295124
1338.905273 0.288001
1337.838867 0.286613
1336.772461 0.294484
1335.706055 0.282959
1334.639648 0.288623
1333.572266 0.295607
1332.504883 0.307433
1331.437500 0.303400
1330.370117 0.303772
1329.302734 0.330993
1328.234375 0.315517
1327.166016 0.322485
1326.096680 0.318454
1325.028320 0.328936
1323.958984 0.327982
1322.889648 0.316040
1321.820313 0.315969
1320.750000 0.301399
1319.679688 0.296499
1318.609375 0.297310
1317.539063 0.302951
1316.468750 0.300687
1315.397461 0.301058
1314.326172 0.281246
1313.254883 0.277673
1312.182617 0.290328
1311.142578 0.281493
1311.110352 0.275681
1310.069336 0.277484
1310.038086 0.280502
1308.997070 0.282242
1308.965820 0.275193
1307.923828 0.272539
1307.892578 0.275144
1306.851563 0.273353
1306.820313 0.267648
1305.778320 0.273729
1305.747070 0.271980
1304.704102 0.270164
1304.672852 0.279813
1303.630859 0.269227
1303.599609 0.262688
1302.557617 0.259537
1302.525391 0.271834
1301.483398 0.261666
1301.451172 0.258217
1300.409180 0.257232
1300.376953 0.268673
1299.334961 0.265483
1299.301758 0.267312
1298.259766 0.271545
1298.227539 0.251079
1297.185547 0.280664
1297.152344 0.267653
1296.110352 0.258746
1296.076172 0.272415
1295.035156 0.275292
1295.000977 0.270179
1293.959961 0.268676
1293.924805 0.286304
1292.883789 0.287396
1292.848633 0.276200
1291.808594 0.281394
1291.772461 0.282091
1290.732422 0.287459
1290.695313 0.271985
1289.656250 0.277360
1289.618164 0.286327
1288.580078 0.283861
1288.541016 0.284952
1287.502930 0.292105
1287.463867 0.297976
1286.426758 0.285504
1286.386719 0.295290
1285.349609 0.285015
1285.308594 0.294787
1284.272461 0.291509
1284.230469 0.303439
1283.195313 0.283603
1283.152344 0.293345
1282.118164 0.292276
1282.073242 0.281512
1281.040039 0.263436
1280.994141 0.267070
1279.961914 0.278215
1279.915039 0.276156
1278.883789 0.280344
1278.835938 0.268689
1277.805664 0.263292
1277.755859 0.261227
1276.727539 0.267602
1276.676758 0.271178
1275.648438 0.263631
1275.596680 0.257625
1274.569336 0.265761
1274.515625 0.258436
1273.490234 0.265277
1273.435547 0.244023
1272.411133 0.238662
1272.354492 0.254404
1271.332031 0.245585
1271.273438 0.261302
1270.251953 0.272967
1270.191406 0.256895
1269.171875 0.250282
1269.110352 0.254663
1268.091797 0.257199
1268.028320 0.252867
1267.011719 0.258457
1266.946289 0.260193
1265.931641 0.262325
1265.864258 0.258831
1264.850586 0.240529
1264.781250 0.259639
1263.769531 0.264402
1263.698242 0.258277
1262.688477 0.263919
1262.615234 0.269068
1261.607422 0.256045
1261.532227 0.248613
1260.526367 0.259040
1260.448242 0.249423
1259.444336 0.247694
1259.364258 0.250667
1258.362305 0.258075
1258.280273 0.250176
1257.280273 0.257593
1257.196289 0.254453
1256.198242 0.265797
1256.111328 0.262195
1255.115234 0.255760
1255.026367 0.244803
1254.033203 0.251371
1253.941406 0.259042
1252.950195 0.259571
1252.856445 0.258982
1251.867188 0.259089
1251.770508 0.251994
1250.783203 0.248193
1250.684570 0.248040
1249.700195 0.258992
1249.598633 0.260966
1248.616211 0.255474
1248.511719 0.239272
1247.532227 0.251523
1247.425781 0.256952
1246.448242 0.249308
1246.338867 0.241323
1245.364258 0.238858
1245.250977 0.257266
1244.279297 0.266552
1244.164063 0.262393
1243.195313 0.266502
1243.076172 0.265790
1242.110352 0.259086
1241.988281 0.253198
1241.024414 0.272033
1240.900391 0.266531
1239.939453 0.279344
1239.812500 0.265173
1238.853516 0.260672
1238.723633 0.269429
1237.768555 0.261489
1237.634766 0.258143
1236.682617 0.267500
1236.544922 0.259809
1235.595703 0.267449
1235.456055 0.262769
1234.509766 0.273024
1234.366211 0.265297
1233.422852 0.282490
1233.276367 0.265666
1232.336914 0.259080
1232.186523 0.264742
1231.250000 0.261193
1231.095703 0.258645
1230.162109 0.275412
1230.004883 0.253844
1229.075195 0.259798
1228.914063 0.252923
1227.987305 0.261477
1227.823242 0.262341
1226.899414 0.273095
1226.731445 0.255820
1225.811523 0.265267
1225.639648 0.251885
1224.723633 0.267808
1224.547852 0.254840
1223.634766 0.268189
1223.456055 0.270704
1222.546875 0.260798
1222.363281 0.254721
1221.458008 0.253841
1221.270508 0.249499
1220.368164 0.257246
1220.177734 0.256322
1219.279297 0.256334
1219.084961 0.260992
1218.189453 0.261031
1217.991211 0.250184
1217.100586 0.270040
1216.897461 0.257431
1216.010742 0.261794
1215.803711 0.266824
1214.919922 0.270799
1214.708984 0.259888
1213.830078 0.265143
1213.614258 0.258539
1212.739258 0.286213
1212.519531 0.264060
1211.648438 0.284866
1211.424805 0.277305
1210.557617 0.282226
1210.329102 0.279386
1209.466797 0.298973
1209.234375 0.293051
1208.375977 0.298054
1208.138672 0.290408
1207.284180 0.298858
1207.041992 0.286051
1206.192383 0.291912
1205.946289 0.294559
1205.100586 0.292287
1204.849609 0.289346
1204.007813 0.292661
1203.752930 0.287135
1202.916016 0.287441
1202.655273 0.289638
1201.823242 0.296420
1201.558594 0.287000
1200.730469 0.286900
1200.460938 0.290358
1199.637695 0.303187
1199.362305 0.295428
1198.543945 0.297969
1198.264648 0.296642
1197.451172 0.296622
1197.166016 0.308983
1196.357422 0.303442
1196.067383 0.299497
1195.263672 0.313267
1194.968750 0.298571
1194.168945 0.313206
1193.870117 0.320739
1193.075195 0.324314
1192.770508 0.319380
1191.980469 0.328546
1191.670898 0.317167
1190.885742 0.322471
1190.570313 0.301708
1189.791016 0.324984
1189.470703 0.317872
1188.696289 0.324492
1188.370117 0.308826
1187.600586 0.314130
1187.269531 0.322419
1186.504883 0.303342
1186.167969 0.302276
1185.409180 0.310576
1185.067383 0.279155
1184.313477 0.299794
1183.965820 0.280369
1183.216797 0.288586
1182.864258 0.264943
1182.121094 0.279527
1181.761719 0.258482
1181.024414 0.253754
1180.659180 0.251598
1179.927734 0.249419
1179.556641 0.252391
1178.830078 0.250228
1178.454102 0.242528
1177.733398 0.245038
1177.351563 0.253549
1176.635742 0.252700
1176.248047 0.244542
1175.538086 0.239376
1175.144531 0.238521
1174.440430 0.235476
1174.040039 0.247833
1173.341797 0.227725
1172.936523 0.231170
1172.243164 0.246939
1171.832031 0.229838
1171.145508 0.243467
1170.727539 0.233188
1170.045898 0.229302
1169.622070 0.239088
1168.947266 0.218564
1168.517578 0.223294
1167.848633 0.222798
1167.412109 0.225792
1166.749023 0.230023
1166.306641 0.221912
1165.649414 0.226558
1165.200195 0.228234
1164.549805 0.223522
1164.093750 0.216282
1163.449219 0.208095
1162.987305 0.219629
1162.348633 0.226424
1161.880859 0.227221
1161.249023 0.219119
1160.773438 0.228016
1160.147461 0.217367
1159.666016 0.231357
1159.046875 0.226718
1158.558594 0.228755
1157.946289 0.213867
1157.451172 0.216396
1156.844727 0.218092
1156.342773 0.217616
1155.743164 0.226157
1155.234375 0.219685
1154.641602 0.212034
1154.125977 0.215816
1153.539063 0.214977
1153.017578 0.231448
1152.436523 0.215361
1151.908203 0.217407
1151.334961 0.220009
1150.798828 0.223287
1150.231445 0.224228
1149.689453 0.217726
1149.128906 0.213103
1148.579102 0.222332
1148.026367 0.214339
1147.468750 0.228630
1146.922852 0.218983
1146.358398 0.215029
1145.819336 0.223625
1145.248047 0.220902
1144.715820 0.230820
1144.136719 0.217041
1143.611328 0.230349
1143.025391 0.234754
1142.506836 0.225195
1141.914063 0.227085
1141.403320 0.222596
1140.801758 0.210542
1140.297852 0.227658
1139.689453 0.215986
1139.193359 0.228889
1138.577148 0.223540
1138.088867 0.219911
1137.464844 0.220106
1136.983398 0.225396
1136.351563 0.221320
1135.877930 0.235556
1135.239258 0.220422
1134.771484 0.224456
1134.125000 0.222480
1133.666016 0.215911
1133.011719 0.218627
1132.559570 0.216293
1131.897461 0.222794
1131.453125 0.213701
1130.783203 0.225271
1130.346680 0.225976
1129.668945 0.228168
1129.240234 0.227630
1128.553711 0.228956
1128.132813 0.223763
1127.439453 0.228057
1127.025391 0.219898
1126.324219 0.211566
1125.917969 0.217307
1125.208008 0.224997
1124.810547 0.228296
1124.092773 0.224100
1123.702148 0.228675
1122.976563 0.228257
1122.594727 0.225660
1121.859375 0.222307
1121.486328 0.230704
1120.743164 0.226462
1120.377930 0.226841
1119.625977 0.230194
1119.268555 0.232307
1118.508789 0.228876
1118.159180 0.235651
1117.391602 0.234709
1117.050781 0.215687
1116.273438 0.222036
1115.940430 0.234285
1115.155273 0.228708
1114.831055 0.218566
1114.037109 0.226971
1113.721680 0.234191
1112.918945 0.228596
1112.611328 0.224829
1111.799805 0.222239
1111.500977 0.234520
1110.680664 0.224704
1110.389648 0.220929
1109.561523 0.213732
1109.279297 0.217076
1108.441406 0.222075
1108.167969 0.225494
1107.321289 0.215306
1107.056641 0.217412
1106.201172 0.216931
1105.945313 0.210602
1105.081055 0.211424
1104.833984 0.211405
1103.959961 0.205082
1103.721680 0.205444
1102.838867 0.203773
1102.609375 0.207515
1101.717773 0.194082
1101.497070 0.213389
1100.595703 0.214150
1100.384766 0.193913
1099.473633 0.201947
1099.271484 0.187960
1098.351563 0.213626
1098.158203 0.195523
1097.229492 0.196404
1097.044922 0.202661
1096.106445 0.197192
1095.931641 0.204309
1094.983398 0.197981
1094.818359 0.208488
1093.860352 0.198351
1093.704102 0.208867
1092.737305 0.209597
1092.589844 0.195325
1091.613281 0.201180
1091.475586 0.201190
1090.489258 0.202803
1090.360352 0.196511
1089.364258 0.206097
1089.246094 0.195206
1088.240234 0.201031
1088.130859 0.190951
1087.115234 0.196803
1087.015625 0.199341
1085.989258 0.202185
1085.900391 0.196351
1084.864258 0.196288
1084.784180 0.195047
1083.738281 0.205007
1083.667969 0.207643
1082.612305 0.195773
1082.551758 0.184019
1081.486328 0.193638
1081.435547 0.196191
1080.359375 0.191503
1080.318359 0.200360
1079.232422 0.197712
1079.202148 0.196532
1078.105469 0.202667
1078.084961 0.197754
1076.977539 0.200532
1076.966797 0.190983
1075.849609 0.193397
1075.849609 0.200196
1074.731445 0.203349
1074.721680 0.190484
1073.613281 0.197050
1073.593750 0.183719
1072.495117 0.194918
1072.464844 0.182420
1071.376953 0.190787
1071.335938 0.190289
1070.257813 0.195790
1070.207031 0.195237
1069.138672 0.197430
1069.077148 0.191026
1068.019531 0.187730
1067.948242 0.191811
1066.900391 0.195250
1066.817383 0.196754
1065.781250 0.196469
1065.687500 0.186309
1064.661133 0.196009
1064.556641 0.197487
1063.541016 0.206040
1063.425781 0.206167
1062.419922 0.204739
1062.294922 0.199051
1061.299805 0.195469
1061.163086 0.197754
1060.178711 0.195009
1060.032227 0.206842
1059.057617 0.189938
1058.899414 0.197655
1057.936523 0.197444
1057.767578 0.201342
1056.815430 0.203690
1056.634766 0.210837
1055.693359 0.201972
1055.501953 0.198336
1054.571289 0.206120
1054.369141 0.213220
1053.449219 0.204402
1053.235352 0.206945
1052.327148 0.205616
1052.101563 0.203576
1051.204102 0.209342
1050.967773 0.204768
1050.081055 0.201764
1049.833984 0.209275
1048.958008 0.203397
1048.699219 0.208393
1047.834961 0.213815
1047.564453 0.202542
1046.710938 0.208333
1046.428711 0.216156
1045.586914 0.208708
1045.293945 0.206993
1044.462891 0.206156
1044.158203 0.212735
1043.338867 0.214475
1043.021484 0.215164
1042.213867 0.220282
1041.885742 0.205181
1041.089844 0.211878
1040.749023 0.210506
1039.964844 0.223533
1039.612305 0.200943
1038.838867 0.211373
1038.474609 0.212052
1037.713867 0.219264
1037.337891 0.208279
1036.587891 0.216296
1036.200195 0.209052
1035.461914 0.216251
1035.061523 0.215195
1034.335938 0.206189
1033.923828 0.212663
1033.209961 0.219082
1032.785156 0.216737
1032.083008 0.211527
1031.646484 0.226174
1030.956055 0.222745
1030.506836 0.222815
1029.829102 0.221865
1029.367188 0.221109
1028.701172 0.227239
1028.227539 0.221877
1027.574219 0.219688
1027.087891 0.218934
1026.446289 0.213391
1025.947266 0.226710
1025.318359 0.229181
1024.806641 0.227476
1024.189453 0.226633
1023.666016 0.229478
1023.061523 0.225337
1022.524414 0.221593
1021.932617 0.228205
1021.382813 0.219066
1020.803711 0.223577
1020.241211 0.221068
1019.674805 0.230191
1019.098633 0.207841
1018.544922 0.220571
1017.957031 0.218074
1017.415039 0.215116
1016.813477 0.218430
1016.285156 0.229215
1015.670898 0.205213
1015.155273 0.227087
1014.527344 0.217495
1014.024414 0.219971
1013.383789 0.212506
1012.894531 0.217430
1012.240234 0.224369
1011.763672 0.219047
1011.095703 0.221846
1010.631836 0.219002
1009.951172 0.223021
1009.500977 0.222280
1008.806641 0.231176
1008.369141 0.223479
1007.662109 0.224548
1007.237305 0.220941
1006.516602 0.220386
1006.105469 0.231275
1005.371094 0.233458
1004.972656 0.226660
1004.224609 0.230526
1003.840820 0.233668
1003.079102 0.233337
1002.708008 0.226565
1001.932617 0.224257
1001.575195 0.227762
1000.785156 0.226658
1000.441406 0.222322
999.638672 0.238483
999.307617 0.235960
998.491211 0.225721
998.173828 0.244202
997.342773 0.233444
997.040039 0.247882
996.195313 0.235021
995.906250 0.239955
995.046875 0.224317
994.771484 0.246120
993.898438 0.230397
993.636719 0.245240
992.749023 0.238111
992.501953 0.226551
991.599609 0.211872
991.367188 0.231886
990.450195 0.213043
990.231445 0.227283
989.300781 0.217484
989.095703 0.227649
987.959961 0.216014
986.824219 0.223416
985.687500 0.215510
984.550781 0.218359
983.414063 0.222448
982.277344 0.225708
981.139648 0.221114
980.001953 0.228505
978.864258 0.221433
977.726563 0.219321
976.587891 0.213907
975.449219 0.217990
974.310547 0.220833
973.171875 0.220787
972.032227 0.228579
970.893555 0.217805
969.752930 0.240030
968.613281 0.235444
967.473633 0.246937
966.333008 0.246472
965.192383 0.239827
964.050781 0.245131
962.910156 0.249198
961.768555 0.241321
960.626953 0.245799
959.485352 0.238749
958.342773 0.237875
957.200195 0.238647
956.057617 0.232014
954.915039 0.217159
953.771484 0.219991
952.628906 0.226111
951.485352 0.219486
950.340820 0.222727
949.197266 0.215695
948.052734 0.205380
946.908203 0.209443
945.762695 0.215146
944.618164 0.210585
943.472656 0.218748
942.327148 0.206802
941.181641 0.203886
940.035156 0.204253
938.888672 0.216101
937.742188 0.218514
936.595703 0.206991
935.448242 0.212274
934.301758 0.216326
933.154297 0.219147
932.005859 0.218690
930.858398 0.227242
929.709961 0.226374
928.561523 0.225507
927.413086 0.225868
926.263672 0.250365
925.114258 0.247857
923.964844 0.253529
922.815430 0.254292
921.665039 0.247289
920.514648 0.237837
919.364258 0.241871
918.213867 0.238960
917.062500 0.233191
915.911133 0.245390
914.759766 0.244521
913.608398 0.244468
912.456055 0.244415
911.303711 0.246402
910.151367 0.249204
908.999023 0.237325
907.845703 0.243797
906.692383 0.260456
905.539063 0.259177
904.385742 0.258306
903.231445 0.277803
902.077148 0.259009
900.922852 0.265061
899.768555 0.261340
898.613281 0.267388
897.458008 0.267330
896.302734 0.271341
895.146484 0.270062
893.991211 0.271223
892.834961 0.282954
891.678711 0.284519
890.521484 0.292991
889.364258 0.309179
888.207031 0.340389
887.049805 0.357777
885.892578 0.378812
884.734375 0.392126
883.576172 0.380272
882.417969 0.367611
881.258789 0.363880
880.099609 0.351634
878.940430 0.347908
877.781250 0.337697
876.621094 0.328302
875.461914 0.313642
874.301758 0.294128
873.140625 0.288798
871.980469 0.264033
870.819336 0.267214
869.658203 0.269585
868.496094 0.257385
867.334961 0.258139
866.172852 0.255655
865.010742 0.247511
863.847656 0.255140
862.685547 0.246999
861.522461 0.257453
860.359375 0.240022
859.195313 0.237141
858.031250 0.247591
856.867188 0.244307
855.703125 0.249098
854.539063 0.237338
853.374023 0.233654
852.208984 0.244900
851.043945 0.244443
849.877930 0.247616
848.711914 0.266109
847.545898 0.268872
846.379883 0.255514
845.212891 0.268755
844.046875 0.259028
842.879883 0.276692
841.711914 0.281463
840.544922 0.291869
839.376953 0.320784
838.208008 0.320714
837.040039 0.368518
835.871094 0.413084
834.702148 0.476531
833.533203 0.533115
832.364258 0.623439
831.194336 0.751097
830.024414 0.857003
828.854492 0.971699
827.683594 1.000000
826.513672 0.976492
825.342773 0.903619
824.170898 0.831580
823.000000 0.744325
821.828125 0.700835
820.656250 0.617658
819.483398 0.533314
818.311523 0.491503
817.138672 0.459330
815.965820 0.414348
814.791992 0.371389
813.619141 0.366500
812.445313 0.347197
811.270508 0.342316
810.096680 0.330232
808.921875 0.324957
807.747070 0.316083
806.572266 0.301212
805.396484 0.300746
804.221680 0.303079
803.045898 0.283823
801.869141 0.292154
800.693359 0.280901
799.516602 0.280839
798.339844 0.283572
797.162109 0.284708
795.985352 0.295024
794.807617 0.277397
793.628906 0.263768
792.451172 0.271290
791.272461 0.283196
790.093750 0.286323
788.915039 0.278286
787.735352 0.290980
786.556641 0.293705
785.375977 0.308381
784.196289 0.295168
783.015625 0.279570
781.835938 0.280703
780.654297 0.258349
779.473633 0.270231
778.291992 0.254653
777.110352 0.271702
775.928711 0.247381
774.747070 0.244542
773.564453 0.255619
772.381836 0.260729
771.199219 0.251929
770.015625 0.245119
768.832031 0.254597
767.648438 0.256526
766.464844 0.265203
765.280273 0.266335
764.095703 0.280164
762.911133 0.289624
761.725586 0.295112
760.541016 0.316858
759.355469 0.340179
758.168945 0.361112
756.983398 0.365787
755.796875 0.380365
754.610352 0.374339
753.422852 0.362374
752.236328 0.361897
751.048828 0.347961
749.861328 0.330469
748.672852 0.314172
747.485352 0.313706
746.296875 0.317196
745.107422 0.300517
743.918945 0.301241
742.729492 0.292083
741.540039 0.279768
740.349609 0.285236
739.160156 0.275693
737.969727 0.268128
736.779297 0.258593
735.587891 0.260113
734.397461 0.257687
733.206055 0.247766
732.013672 0.248500
730.822266 0.245683
729.629883 0.244840
728.437500 0.261340
727.244141 0.245912
726.051758 0.255707
724.858398 0.242650
723.665039 0.249684
722.470703 0.252778
721.276367 0.254296
720.082031 0.261716
718.887695 0.258510
717.693359 0.256485
716.498047 0.264686
715.302734 0.257942
714.106445 0.257491
712.911133 0.266865
711.714844 0.262483
710.517578 0.264388
709.321289 0.254902
708.124023 0.271729
706.926758 0.266957
705.729492 0.257477
704.531250 0.278609
703.333008 0.264422
702.134766 0.249850
700.936523 0.270185
699.737305 0.285022
698.538086 0.276726
697.338867 0.282934
696.138672 0.274642
694.938477 0.289073
693.738281 0.295665
692.538086 0.289725
691.336914 0.297097
690.135742 0.293116
688.934570 0.307918
687.732422 0.309413
686.531250 0.307778
685.328125 0.304971
684.125977 0.318975
682.923828 0.327500
681.720703 0.330161
680.516602 0.318367
679.313477 0.346414
678.109375 0.337355
676.905273 0.341182
675.701172 0.337202
674.496094 0.350392
673.291992 0.367087
672.085938 0.366613
670.880859 0.364580
669.674805 0.359819
668.468750 0.354281
667.262695 0.343290
666.055664 0.326460
664.849609 0.340797
663.642578 0.337215
662.434570 0.328962
661.227539 0.301253
660.019531 0.306243
658.810547 0.294891
657.602539 0.298325
656.393555 0.308756
655.184570 0.319182
653.975586 0.319887
652.765625 0.314373
651.555664 0.313913
650.345703 0.296751
649.134766 0.299402
647.924805 0.287298
646.712891 0.295383
645.501953 0.288331
644.291016 0.282833
643.079102 0.285871
641.866211 0.282316
640.654297 0.290393
639.441406 0.274047
638.228516 0.279797
637.015625 0.282058
635.801758 0.270760
634.587891 0.286188
633.374023 0.272572
632.160156 0.277154
630.945313 0.283669
629.730469 0.284378
628.514648 0.297078
627.299805 0.288889
626.083984 0.290369
624.868164 0.289142
623.651367 0.280187
622.435547 0.292487
621.218750 0.297055
620.000977 0.314366
618.784180 0.311591
617.566406 0.313449
616.347656 0.312219
615.129883 0.318707
613.911133 0.310919
612.692383 0.293878
611.473633 0.299594
610.253906 0.291815
609.034180 0.283654
607.814453 0.278195
606.594727 0.287761
605.374023 0.292316
604.153320 0.273382
602.931641 0.295261
601.710938 0.290574
600.489258 0.283581
599.267578 0.272360
598.044922 0.274220
596.822266 0.268773
595.599609 0.256025
594.376953 0.263653
593.153320 0.264745
591.929688 0.253543
590.706055 0.252332
589.481445 0.253426
588.257813 0.252599
587.032227 0.246400
585.807617 0.247878
584.582031 0.249738
583.356445 0.257351
582.130859 0.246938
580.905273 0.258382
579.678711 0.247591
578.452148 0.240253
577.224609 0.241346
575.997070 0.249716
574.769531 0.258465
573.541992 0.249217
572.313477 0.239208
571.084961 0.259050
569.856445 0.245218
568.627930 0.252810
567.398438 0.252752
566.168945 0.253075
564.939453 0.250723
563.708984 0.251429
562.478516 0.245640
561.248047 0.256277
560.016602 0.243616
558.785156 0.266083
557.553711 0.248846
556.322266 0.249170
555.089844 0.259412
553.857422 0.253630
552.625000 0.258147
551.391602 0.261136
550.158203 0.245449
548.924805 0.251488
547.690430 0.249906
546.457031 0.246800
545.222656 0.247123
543.987305 0.247065
542.752930 0.247388
541.517578 0.258746
540.281250 0.246892
539.045898 0.243411
537.809570 0.253621
536.573242 0.241777
535.335938 0.251602
534.099609 0.242043
532.861328 0.257562
531.624023 0.253324
530.385742 0.251745
529.148438 0.259658
527.909180 0.258838
526.670898 0.256121
525.431641 0.267821
524.192383 0.257518
522.952148 0.273004
521.712891 0.268390
520.472656 0.272496
519.231445 0.259170
517.991211 0.262519
516.750000 0.264729
515.508789 0.260123
514.266602 0.271418
513.024414 0.272868
511.782227 0.274696
510.540039 0.270092
509.296875 0.270406
508.053711 0.276392
506.810547 0.277461
505.566406 0.286465
504.322266 0.279219
503.078125 0.297662
501.833008 0.286640
500.587891 0.289593
499.342773 0.285749
498.097656 0.290211
496.851563 0.296179
495.605469 0.293845
494.359375 0.307352
493.112305 0.298984
491.865234 0.303060
490.618164 0.302611
489.370117 0.321378
488.123047 0.312261
486.874023 0.325744
485.625977 0.321525
484.376953 0.334623
483.127930 0.335673
481.878906 0.337098
480.628906 0.349054
479.378906 0.349723
478.128906 0.357535
476.877930 0.367974
475.626953 0.358868
474.375977 0.362915
473.125000 0.380106
471.873047 0.394661
470.621094 0.408833
469.368164 0.424874
468.115234 0.420645
466.862305 0.470065
465.609375 0.494707
464.355469 0.522337
463.102539 0.556702
461.847656 0.612038
460.593750 0.667348
459.338867 0.744359
458.083984 0.825453
456.828125 0.860827
455.572266 0.910409
454.316406 0.901209
453.060547 0.883407
451.803711 0.828955
450.546875 0.744235
449.290039 0.658808
448.032227 0.614167
446.774414 0.552356
445.516602 0.524201
444.257813 0.498675
442.999023 0.472413
441.740234 0.450645
440.481445 0.467334
439.221680 0.459012
437.961914 0.425696
436.701172 0.431935
435.441406 0.418406
434.180664 0.419797
432.918945 0.423796
431.658203 0.442698
430.396484 0.436631
429.133789 0.440623
427.872070 0.432324
426.609375 0.413978
425.346680 0.417600
424.083008 0.413034
422.819336 0.428931
421.555664 0.430315
420.291016 0.421287
419.027344 0.445348
417.762695 0.432604
416.497070 0.443647
415.231445 0.432767
413.965820 0.468315
412.700195 0.474884
411.433594 0.485163
410.166992 0.482077
408.900391 0.492719
407.632813 0.505212
406.365234 0.494705
405.097656 0.513494
403.830078 0.529308
402.561523 0.541037
401.291992 0.547575
400.023438 0.561146
398.753906 0.571008
397.484375 0.596784
396.214844 0.574431
394.944336 0.588722
393.673828 0.606706
392.402344 0.605079
391.130859 0.630445
389.859375 0.620680
388.587891 0.647138
387.315430 0.634048
386.042969 0.648300
384.770508 0.662175
383.497070 0.657952
382.223633 0.676617
380.950195 0.683463
379.676758 0.683665
378.402344 0.685711
377.126953 0.677061
375.852539 0.679476
374.577148 0.673412
373.301758 0.675458
372.025391 0.672345
370.749023 0.671444
369.472656 0.667965
368.196289 0.659702
366.918945 0.651443
365.641602 0.646867
364.363281 0.636776
363.085938 0.618966
361.807617 0.616975
360.528320 0.613882
359.249023 0.602706
357.969727 0.588963
356.690430 0.594328
355.410156 0.579125
354.129883 0.571272
352.849609 0.557183
351.568359 0.555211
350.287109 0.549204
349.005859 0.565206
347.723633 0.541232
346.441406 0.541831
345.159180 0.537299
343.875977 0.528006
342.592773 0.522380
341.309570 0.504305
340.026367 0.485141
338.742188 0.478432
337.457031 0.475019
336.172852 0.466486
334.887695 0.455397
333.602539 0.457112
332.316406 0.448956
331.030273 0.442630
329.744141 0.449098
328.457031 0.435834
327.170898 0.434995
325.882813 0.436713
324.595703 0.415796
323.307617 0.417152
322.019531 0.437116
320.730469 0.431535
319.441406 0.428875
318.152344 0.420382
316.863281 0.412622
315.573242 0.432926
314.283203 0.414238
312.992188 0.429796
311.701172 0.433694
310.410156 0.431765
309.119141 0.445852
307.827148 0.434096
306.535156 0.446356
305.242188 0.445516
303.950195 0.448677
302.656250 0.485278
301.363281 0.467349
300.069336 0.481038
298.775391 0.487818
297.480469 0.509484
296.186523 0.527871
294.891602 0.558227
293.595703 0.591107
292.299805 0.611273
291.003906 0.623087
289.708008 0.635258
288.411133 0.656848
287.114258 0.707057
285.816406 0.718110
284.518555 0.727709
283.220703 0.742372
281.922852 0.757752
280.624023 0.773848
279.325195 0.770033
278.025391 0.764412
276.725586 0.768558
275.425781 0.777041
274.125977 0.774675
272.825195 0.804475
271.523438 0.807522
270.222656 0.848857
268.920898 0.890532
267.619141 0.888500
266.316406 0.947468
265.013672 0.980786
263.710938 1.016251
262.408203 1.052059
261.104492 1.108400
259.799805 1.138758
258.496094 1.180633
257.191406 1.228972
255.886719 1.286651
254.581055 1.333497
253.275391 1.357637
251.969727 1.393643
250.663086 1.410198
249.356445 1.446531
248.049805 1.449038
246.742188 1.472757
245.434570 1.508685
244.126953 1.537407
242.818359 1.529827
241.509766 1.544161
240.201172 1.541609
238.891602 1.518596
237.582031 1.508514
236.271484 1.484444
234.961914 1.427382
233.650391 1.425221
232.339844 1.410512
231.028320 1.382906
229.716797 1.354239
228.405273 1.312330
227.092773 1.298381
225.779297 1.296971
224.466797 1.257614
223.153320 1.246552
221.839844 1.248018
220.525391 1.229094
219.210938 1.190153
217.896484 1.186984
216.581055 1.186319
215.265625 1.149919
213.950195 1.133187
212.633789 1.113964
211.317383 1.102248
210.000977 1.105174
208.683594 1.080262
207.366211 1.081408
206.048828 1.038680
204.730469 1.060875
203.412109 1.027087
202.092773 1.009711
200.773438 1.028332
199.454102 1.023076
198.133789 1.027795
196.814453 1.026814
195.493164 1.030460
194.172852 1.016668
192.851563 1.020315
191.529297 1.064861
190.208008 1.026180
188.885742 1.034087
187.562500 1.058692
186.239258 1.070849
184.916016 1.091524
183.592773 1.086266
182.268555 1.088465
180.944336 1.110183
179.619141 1.137567
178.293945 1.114564
176.968750 1.163920
175.643555 1.177794
174.317383 1.207966
172.990234 1.205875
171.664063 1.226457
170.336914 1.259071
169.008789 1.260154
167.680664 1.285660
166.352539 1.314338
165.024414 1.343001
163.695313 1.394285
162.366211 1.410534
161.036133 1.463893
159.706055 1.494958
158.375977 1.573352
157.044922 1.630863
155.713867 1.701056
154.382813 1.762032
153.050781 1.809210
151.718750 1.871182
150.385742 1.944763
149.053711 1.955176
147.719727 1.998019
146.386719 2.007002
145.052734 2.048046
143.717773 2.096113
142.383789 2.114218
141.048828 2.133017
139.712891 2.148637
138.377930 2.148412
137.041016 2.141151
135.705078 2.168361
134.368164 2.160394
133.031250 2.146455
131.693359 2.134280
130.355469 2.151975
129.017578 2.136993
127.678711 2.111134
126.339844 2.109160
125.000977 2.090691
123.661133 2.105214
122.321289 2.089561
120.980469 2.081982
119.639648 2.094390
118.298828 2.103637
116.957031 2.111125
115.615234 2.121762
114.273438 2.173017
112.930664 2.174527
111.587891 2.205438
110.244141 2.229682
108.900391 2.172054
107.556641 2.212381
106.211914 2.119126
104.867188 2.032562
103.522461 1.896423
102.176758 1.744289
100.831055 1.613193
99.484375 1.389641
98.137695 1.156438
