3198.529297 0.012386
3197.824219 0.011696
3197.119141 0.009631
3196.414063 0.013068
3195.708008 0.008940
3195.001953 0.010314
3194.296875 0.012375
3193.590820 0.013748
3192.884766 0.012371
3192.178711 0.010995
3191.472656 0.016489
3190.765625 0.014426
3190.059570 0.010303
3189.352539 0.006181
3188.646484 0.010299
3187.939453 0.006865
3187.232422 0.017847
3186.525391 0.004804
3185.818359 0.008921
3185.111328 0.008233
3184.404297 0.009604
3183.696289 0.013717
3182.989258 0.006172
3182.281250 0.009599
3181.573242 0.012340
3180.865234 0.015765
3180.157227 0.008909
3179.449219 0.013019
3178.741211 0.009592
3178.033203 0.013700
3177.324219 0.013698
3176.616211 0.013011
3175.907227 0.010955
3175.198242 0.010268
3174.489258 0.009582
3173.780273 0.015740
3173.071289 0.008895
3172.362305 0.017103
3171.652344 0.012996
3170.943359 0.008891
3170.233398 0.018462
3169.523438 0.012306
3168.814453 0.017089
3168.104492 0.010252
3167.394531 0.012984
3166.683594 0.007516
3165.973633 0.006831
3165.263672 0.014344
3164.552734 0.012292
3163.841797 0.010242
3163.130859 0.008192
3162.420898 0.015699
3161.709961 0.012967
3160.998047 0.012282
3160.287109 0.008869
3159.576172 0.012278
3158.864258 0.010912
3158.153320 0.010229
3157.441406 0.013636
3156.729492 0.014316
3156.017578 0.004771
3155.305664 0.018400
3154.593750 0.017034
3153.880859 0.013625
3153.168945 0.010898
3152.456055 0.016345
3151.744141 0.017704
3151.031250 0.010212
3150.318359 0.010891
3149.605469 0.012931
3148.892578 0.008846
3148.178711 0.013607
3147.465820 0.017686
3146.751953 0.011562
3146.039063 0.017000
3145.325195 0.013598
3144.611328 0.008157
3143.897461 0.016312
3143.183594 0.011553
3142.468750 0.016307
3141.754883 0.014945
3141.041016 0.014264
3140.326172 0.010187
3139.611328 0.018333
3138.896484 0.014936
3138.181641 0.016291
3137.466797 0.008823
3136.751953 0.013571
3136.037109 0.018996
3135.321289 0.016958
3134.605469 0.014921
3133.890625 0.014918
3133.174805 0.014916
3132.458984 0.008812
3131.743164 0.017622
3131.027344 0.021007
3130.310547 0.012196
3129.594727 0.010839
3128.877930 0.012191
3128.161133 0.008803
3127.445313 0.010156
3126.728516 0.020986
3126.010742 0.010830
3125.293945 0.014888
3124.577148 0.021652
3123.859375 0.012177
3123.142578 0.016910
3122.424805 0.014878
3121.707031 0.008114
3120.989258 0.010141
3120.271484 0.018250
3119.553711 0.016895
3118.835938 0.012838
3118.117188 0.012836
3117.399414 0.017562
3116.680664 0.024313
3115.961914 0.019582
3115.243164 0.014178
3114.524414 0.017550
3113.805664 0.012823
3113.086914 0.017544
3112.367188 0.016867
3111.648438 0.018213
3110.928711 0.019559
3110.208984 0.012812
3109.489258 0.012136
3108.769531 0.016178
3108.049805 0.012806
3107.329102 0.020890
3106.609375 0.010106
3105.888672 0.017514
3105.168945 0.014817
3104.448242 0.018855
3103.727539 0.017505
3103.006836 0.017502
3102.285156 0.019518
3101.564453 0.014805
3100.843750 0.018166
3100.122070 0.018836
3099.400391 0.014797
3098.678711 0.016812
3097.957031 0.015464
3097.235352 0.018150
3096.513672 0.018819
3095.791992 0.020160
3095.069336 0.016125
3094.346680 0.018138
3093.625000 0.020150
3092.902344 0.021489
3092.179688 0.013428
3091.457031 0.014769
3090.733398 0.017451
3090.010742 0.018119
3089.287109 0.020129
3088.564453 0.014758
3087.840820 0.014085
3087.117188 0.020118
3086.393555 0.024808
3085.669922 0.015419
3084.946289 0.016086
3084.221680 0.021444
3083.498047 0.022111
3082.773438 0.020767
3082.048828 0.026122
3081.324219 0.020090
3080.599609 0.016739
3079.875000 0.022761
3079.149414 0.012717
3078.424805 0.021414
3077.699219 0.013382
3076.974609 0.008028
3076.249023 0.011370
3075.523438 0.018724
3074.797852 0.020727
3074.071289 0.016712
3073.345703 0.015373
3072.619141 0.018043
3071.893555 0.022049
3071.166992 0.020041
3070.440430 0.012690
3069.713867 0.017362
3068.987305 0.016024
3068.259766 0.020694
3067.533203 0.024028
3066.805664 0.016016
3066.079102 0.022685
3065.351563 0.010673
3064.624023 0.022677
3063.896484 0.030675
3063.168945 0.018002
3062.440430 0.012665
3061.712891 0.019995
3060.984375 0.016659
3060.255859 0.020654
3059.527344 0.017319
3058.798828 0.012654
3058.070313 0.018645
3057.341797 0.023302
3056.613281 0.019304
3055.883789 0.019966
3055.154297 0.019963
3054.424805 0.019294
3053.695313 0.019290
3052.965820 0.017957
3052.236328 0.017953
3051.506836 0.020610
3050.776367 0.018612
3050.046875 0.022596
3049.316406 0.025914
3048.585938 0.022588
3047.855469 0.019263
3047.125000 0.021916
3046.393555 0.017264
3045.663086 0.017925
3044.931641 0.017258
3044.201172 0.022564
3043.469727 0.020569
3042.738281 0.019902
3042.006836 0.025868
3041.275391 0.021221
3040.542969 0.023206
3039.811523 0.017899
3039.079102 0.025186
3038.346680 0.015904
3037.614258 0.021864
3036.881836 0.023185
3036.149414 0.019870
3035.416992 0.023177
3034.683594 0.023173
3033.951172 0.014563
3033.217773 0.022503
3032.484375 0.021175
3031.750977 0.021833
3031.017578 0.033074
3030.284180 0.023809
3029.549805 0.025788
3028.816406 0.021817
3028.082031 0.017847
3027.347656 0.025774
3026.613281 0.016519
3025.878906 0.023783
3025.144531 0.016513
3024.410156 0.025756
3023.674805 0.025091
3022.939453 0.021785
3022.205078 0.019801
3021.469727 0.020458
3020.734375 0.025732
3019.999023 0.025728
3019.262695 0.017149
3018.527344 0.018464
3017.791016 0.021758
3017.054688 0.029005
3016.318359 0.029659
3015.582031 0.030971
3014.845703 0.025695
3014.109375 0.025690
3013.373047 0.025027
3012.635742 0.024364
3011.898438 0.027651
3011.161133 0.028962
3010.424805 0.025667
3009.686523 0.022372
3008.949219 0.025657
3008.211914 0.021706
3007.473633 0.018414
3006.736328 0.030246
3005.998047 0.028268
3005.259766 0.028263
3004.521484 0.033515
3003.782227 0.025624
3003.043945 0.036130
3002.305664 0.031526
3001.566406 0.024953
3000.827148 0.028888
3000.087891 0.030852
2999.348633 0.028877
2998.609375 0.031497
2997.870117 0.028211
2997.129883 0.027549
2996.389648 0.033447
2995.650391 0.032129
2994.910156 0.038023
2994.169922 0.027529
2993.429688 0.032767
2992.688477 0.028174
2991.948242 0.027514
2991.207031 0.036023
2990.465820 0.035362
2989.725586 0.033391
2988.983398 0.029457
2988.242188 0.038615
2987.500977 0.043842
2986.759766 0.034021
2986.017578 0.043172
2985.275391 0.035316
2984.533203 0.037925
2983.791016 0.039879
2983.048828 0.039218
2982.306641 0.053588
2981.563477 0.030709
2980.821289 0.042463
2980.078125 0.047027
2979.334961 0.047018
2978.591797 0.036563
2977.848633 0.052223
2977.105469 0.041118
2976.361328 0.051551
2975.618164 0.048279
2974.874023 0.048922
2974.129883 0.050870
2973.385742 0.037819
2972.641602 0.055414
2971.897461 0.050189
2971.152344 0.052787
2970.408203 0.049519
2969.663086 0.061887
2968.917969 0.056665
2968.172852 0.054701
2967.427734 0.069015
2966.682617 0.059237
2965.936523 0.064433
2965.191406 0.065071
2964.445313 0.068963
2963.699219 0.049436
2962.953125 0.070888
2962.207031 0.065023
2961.460938 0.061760
2960.713867 0.078648
2959.967773 0.073434
2959.220703 0.071471
2958.473633 0.076005
2957.726563 0.073393
2956.979492 0.083120
2956.232422 0.080507
2955.484375 0.077895
2954.737305 0.080477
2953.989258 0.079164
2953.241211 0.085637
2952.493164 0.081729
2951.745117 0.081713
2950.997070 0.079104
2950.248047 0.088165
2949.500000 0.083611
2948.750977 0.082300
2948.001953 0.090707
2947.252930 0.089394
2946.503906 0.085491
2945.754883 0.098426
2945.004883 0.098407
2944.255859 0.096447
2943.505859 0.089310
2942.755859 0.095763
2942.005859 0.103508
2941.255859 0.088612
2940.504883 0.091182
2939.754883 0.091811
2939.003906 0.098258
2938.252930 0.085313
2937.502930 0.087236
2936.750977 0.100787
2936.000000 0.088495
2935.249023 0.100103
2934.497070 0.085233
2933.746094 0.083925
2932.994141 0.091655
2932.242188 0.092928
2931.490234 0.087749
2930.738281 0.092893
2929.985352 0.088360
2929.233398 0.087699
2928.480469 0.088971
2927.727539 0.081219
2926.974609 0.088938
2926.221680 0.088276
2925.468750 0.086327
2924.715820 0.076005
2923.961914 0.085006
2923.208008 0.078551
2922.455078 0.090123
2921.701172 0.084957
2920.946289 0.082367
2920.192383 0.086212
2919.438477 0.091984
2918.683594 0.091967
2917.928711 0.090663
2917.173828 0.084217
2916.418945 0.085487
2915.664063 0.086755
2914.909180 0.089309
2914.153320 0.079014
2913.398438 0.101478
2912.642578 0.089900
2911.886719 0.095019
2911.130859 0.102703
2910.375000 0.085998
2909.619141 0.091114
2908.862305 0.078266
2908.105469 0.089155
2907.349609 0.085290
2906.592773 0.090403
2905.835938 0.087822
2905.078125 0.085882
2904.321289 0.096118
2903.563477 0.080083
2902.806641 0.099284
2902.048828 0.098625
2901.291016 0.089641
2900.533203 0.092825
2899.774414 0.087687
2899.016602 0.092789
2898.257813 0.094051
2897.500000 0.100430
2896.741211 0.092736
2895.982422 0.089521
2895.222656 0.090782
2894.463867 0.092043
2893.705078 0.092664
2892.945313 0.095841
2892.185547 0.084324
2891.425781 0.081753
2890.666016 0.095147
2889.906250 0.092575
2889.146484 0.097025
2888.385742 0.095730
2887.625000 0.095712
2886.864258 0.089314
2886.103516 0.096951
2885.342773 0.090555
2884.582031 0.099463
2883.821289 0.097532
2883.059570 0.103886
2882.297852 0.100043
2881.536133 0.101298
2880.774414 0.102552
2880.012695 0.096801
2879.250977 0.098055
2878.488281 0.097400
2877.726563 0.103746
2876.963867 0.097998
2876.201172 0.097979
2875.438477 0.101141
2874.674805 0.114477
2873.912109 0.106188
2873.149414 0.099175
2872.385742 0.106147
2871.622070 0.100407
2870.858398 0.106106
2870.094727 0.114979
2869.330078 0.108605
2868.566406 0.097789
2867.801758 0.108563
2867.038086 0.109177
2866.273438 0.105348
2865.508789 0.112941
2864.743164 0.099597
2863.978516 0.101481
2863.212891 0.105900
2862.448242 0.116023
2861.682617 0.105859
2860.916992 0.110908
2860.151367 0.114055
2859.384766 0.118467
2858.619141 0.110843
2857.852539 0.109555
2857.086914 0.113966
2856.320313 0.117741
2855.553711 0.117086
2854.786133 0.112633
2854.019531 0.096795
2853.251953 0.105632
2852.485352 0.112567
2851.717773 0.110648
2850.950195 0.108098
2850.182617 0.121982
2849.414063 0.114375
2848.646484 0.108667
2847.877930 0.110540
2847.110352 0.105466
2846.341797 0.097237
2845.573242 0.104162
2844.803711 0.105404
2844.035156 0.111063
2843.266602 0.124291
2842.497070 0.116697
2841.727539 0.109736
2840.958008 0.109715
2840.188477 0.100237
2839.418945 0.110302
2838.648438 0.107130
2837.878906 0.100808
2837.108398 0.108347
2836.337891 0.098879
2835.567383 0.102638
2834.795898 0.107654
2834.025391 0.109521
2833.254883 0.098801
2832.483398 0.110107
2831.711914 0.102537
2830.940430 0.099372
2830.168945 0.096208
2829.397461 0.108763
2828.625000 0.106856
2827.852539 0.103064
2827.081055 0.099274
2826.308594 0.101767
2825.536133 0.092954
2824.762695 0.102983
2823.990234 0.084128
2823.216797 0.097921
2822.444336 0.097902
2821.670898 0.094118
2820.897461 0.096608
2820.123047 0.094080
2819.349609 0.097824
2818.576172 0.098432
2817.801758 0.099039
2817.027344 0.094006
2816.252930 0.098374
2815.478516 0.092089
2814.704102 0.086434
2813.928711 0.097063
2813.154297 0.085774
2812.378906 0.090139
2811.603516 0.102012
2810.828125 0.083846
2810.052734 0.100095
2809.276367 0.082562
2808.500977 0.089424
2807.724609 0.085030
2806.948242 0.085013
2806.171875 0.094996
2805.395508 0.078106
2804.619141 0.086212
2803.841797 0.080573
2803.064453 0.089924
2802.288086 0.084912
2801.510742 0.098004
2800.733398 0.092367
2799.955078 0.089229
2799.177734 0.087964
2798.399414 0.086699
2797.621094 0.088552
2796.842773 0.081053
2796.064453 0.090387
2795.286133 0.082890
2794.507813 0.082251
2793.728516 0.086595
2792.950195 0.078481
2792.170898 0.082201
2791.391602 0.075959
2790.611328 0.079679
2789.832031 0.081530
2789.052734 0.075913
2788.272461 0.085852
2787.492188 0.081481
2786.711914 0.073381
2785.931641 0.090775
2785.151367 0.075216
2784.370117 0.083281
2783.588867 0.069594
2782.808594 0.073929
2782.027344 0.085715
2781.246094 0.072657
2780.463867 0.073263
2779.682617 0.080698
2778.900391 0.076958
2778.119141 0.063912
2777.336914 0.078788
2776.554688 0.081874
2775.771484 0.076276
2774.989258 0.079981
2774.206055 0.066327
2773.423828 0.076230
2772.640625 0.070638
2771.857422 0.069385
2771.074219 0.075565
2770.290039 0.084839
2769.506836 0.069962
2768.722656 0.063758
2767.938477 0.076123
2767.154297 0.072395
2766.370117 0.068050
2765.585938 0.072985
2764.800781 0.065549
2764.016602 0.070482
2763.231445 0.072941
2762.446289 0.063038
2761.661133 0.067968
2760.875000 0.068572
2760.089844 0.072882
2759.303711 0.071632
2758.518555 0.077792
2757.732422 0.072221
2756.945313 0.076526
2756.159180 0.076511
2755.373047 0.067859
2754.585938 0.075863
2753.798828 0.070914
2753.012695 0.075832
2752.224609 0.070886
2751.437500 0.066558
2750.650391 0.067776
2749.862305 0.072691
2749.074219 0.078219
2748.287109 0.068967
2747.499023 0.070800
2746.709961 0.069555
2745.921875 0.072617
2745.132813 0.067681
2744.344727 0.067052
2743.555664 0.065193
2742.766602 0.066410
2741.977539 0.070700
2741.187500 0.076217
2740.398438 0.076202
2739.608398 0.069428
2738.818359 0.073714
2738.028320 0.073699
2737.238281 0.077368
2736.448242 0.069985
2735.657227 0.082247
2734.866211 0.067502
2734.075195 0.076692
2733.284180 0.072382
2732.493164 0.072367
2731.702148 0.072353
2730.910156 0.076016
2730.119141 0.070485
2729.327148 0.074147
2728.535156 0.075970
2727.743164 0.069216
2726.950195 0.070427
2726.158203 0.073474
2725.365234 0.068562
2724.572266 0.070996
2723.779297 0.070982
2722.986328 0.072191
2722.193359 0.069729
2721.399414 0.067269
2720.606445 0.075204
2719.812500 0.068464
2719.018555 0.076395
2718.224609 0.070269
2717.430664 0.072088
2716.635742 0.078181
2715.840820 0.072058
2715.046875 0.065328
2714.251953 0.070808
2713.456055 0.062860
2712.661133 0.062847
2711.866211 0.076255
2711.070313 0.070750
2710.274414 0.065857
2709.478516 0.079256
2708.682617 0.068268
2707.886719 0.065207
2707.089844 0.066412
2706.293945 0.069445
2705.497070 0.076130
2704.700195 0.068807
2703.903320 0.062705
2703.105469 0.079735
2702.308594 0.074242
2701.510742 0.071793
2700.712891 0.071778
2699.915039 0.070547
2699.117188 0.060804
2698.319336 0.072949
2697.520508 0.076581
2696.722656 0.062589
2695.923828 0.072904
2695.125000 0.074104
2694.326172 0.066801
2693.526367 0.072859
2692.727539 0.068595
2691.927734 0.062512
2691.127930 0.064319
2690.328125 0.068553
2689.528320 0.066112
2688.728516 0.062460
2687.927734 0.073967
2687.126953 0.069102
2686.326172 0.071512
2685.525391 0.066650
2684.724609 0.067242
2683.923828 0.066622
2683.122070 0.073269
2682.321289 0.062357
2681.519531 0.064160
2680.717773 0.064752
2679.915039 0.065343
2679.113281 0.066539
2678.310547 0.067735
2677.508789 0.067721
2676.706055 0.068916
2675.903320 0.065880
2675.099609 0.073117
2674.296875 0.068873
2673.493164 0.071275
2672.690430 0.063410
2671.886719 0.070038
2671.083008 0.067609
2670.278320 0.075440
2669.474609 0.069391
2668.669922 0.066963
2667.865234 0.065743
2667.060547 0.063920
2666.255859 0.073553
2665.451172 0.069318
2664.646484 0.067496
2663.840820 0.072905
2663.035156 0.070480
2662.229492 0.059022
2661.423828 0.067440
2660.618164 0.068028
2659.811523 0.071023
2659.004883 0.064990
2658.199219 0.073400
2657.391602 0.073384
2656.584961 0.073369
2655.778320 0.067341
2655.033203 0.070487
2654.970703 0.072737
2654.227539 0.068077
2654.164063 0.069116
2653.421875 0.067464
2653.356445 0.067299
2652.616211 0.067453
2652.548828 0.076296
2651.810547 0.070453
2651.740234 0.063667
2651.004883 0.064421
2650.932617 0.081068
2650.198242 0.067420
2650.124023 0.064841
2649.392578 0.065002
2649.316406 0.066028
2648.585938 0.069806
2648.507813 0.072615
2647.779297 0.075209
2647.699219 0.061800
2646.972656 0.069783
2646.889648 0.061787
2646.166016 0.069772
2646.081055 0.068371
2645.359375 0.073970
2645.271484 0.069556
2644.552734 0.061932
2644.461914 0.080932
2643.745117 0.067333
2643.652344 0.063533
2642.938477 0.075737
2642.842773 0.067115
2642.130859 0.071518
2642.033203 0.082678
2641.323242 0.067300
2641.222656 0.073077
2640.515625 0.063684
2640.413086 0.071864
2639.708008 0.065476
2639.602539 0.083225
2638.899414 0.070870
2638.791992 0.073629
2638.091797 0.075062
2637.981445 0.071818
2637.283203 0.072648
2637.169922 0.073598
2636.475586 0.067834
2636.359375 0.067600
2635.666992 0.069623
2635.547852 0.074763
2634.858398 0.069012
2634.736328 0.072954
2634.049805 0.069600
2633.924805 0.067557
2633.241211 0.068389
2633.113281 0.078302
2632.431641 0.067778
2632.300781 0.068724
2631.623047 0.076163
2631.489258 0.072892
2630.813477 0.080947
2630.676758 0.069292
2630.003906 0.067744
2629.864258 0.077042
2629.194336 0.074327
2629.051758 0.064486
2628.384766 0.074914
2628.238281 0.068054
2627.575195 0.072504
2627.425781 0.064459
2626.765625 0.073091
2626.612305 0.073993
2625.955078 0.080866
2625.798828 0.078750
2625.145508 0.070672
2624.985352 0.082908
2624.334961 0.072456
2624.171875 0.082294
2623.524414 0.075438
2623.358398 0.082873
2622.713867 0.072432
2622.543945 0.073914
2621.903320 0.073018
2621.729492 0.078666
2621.092773 0.068817
2620.916016 0.070904
2620.281250 0.068208
2620.100586 0.072080
2619.469727 0.070589
2619.286133 0.069682
2618.659180 0.068783
2618.471680 0.071454
2617.847656 0.074153
2617.656250 0.067867
2617.036133 0.068162
2616.840820 0.072614
2616.224609 0.068748
2616.025391 0.080929
2615.412109 0.077105
2615.209961 0.076747
2614.600586 0.073506
2614.394531 0.067214
2613.788086 0.076481
2613.578125 0.076715
2612.976563 0.077663
2612.762695 0.079671
2612.164063 0.076455
2611.946289 0.079060
2611.351563 0.074651
2611.129883 0.078448
2610.539063 0.077027
2610.312500 0.075461
2609.726563 0.076417
2609.496094 0.076039
2608.913086 0.081776
2608.678711 0.084931
2608.100586 0.074004
2607.862305 0.071256
2607.287109 0.084732
2607.044922 0.073615
2606.473633 0.084717
2606.227539 0.082503
2605.660156 0.083510
2605.409180 0.082485
2604.846680 0.081707
2604.591797 0.071788
2604.033203 0.069171
2603.773438 0.064061
2603.218750 0.078698
2602.955078 0.068199
2602.405273 0.078089
2602.136719 0.075892
2601.590820 0.078671
2601.318359 0.072319
2600.776367 0.083425
2600.500000 0.082971
2599.961914 0.081028
2599.680664 0.078213
2599.147461 0.079822
2598.861328 0.079974
2598.333008 0.079809
2598.042969 0.076995
2597.518555 0.074436
2597.222656 0.063951
2596.703125 0.080377
2596.403320 0.079330
2595.888672 0.075601
2595.583984 0.072210
2595.073242 0.079159
2594.763672 0.068644
2594.257813 0.082121
2593.943359 0.068630
2593.442383 0.073182
2593.123047 0.076896
2592.625977 0.074359
2592.302734 0.068009
2591.810547 0.070183
2591.482422 0.073906
2590.994141 0.077307
2590.661133 0.074482
2590.178711 0.078483
2589.839844 0.069147
2589.362305 0.071930
2589.018555 0.076813
2588.545898 0.070729
2588.197266 0.066754
2587.729492 0.074877
2587.375977 0.082095
2586.913086 0.077835
2586.554688 0.076173
2586.095703 0.062970
2585.732422 0.075566
2585.279297 0.077808
2584.910156 0.075549
2584.461914 0.071262
2584.087891 0.082024
2583.644531 0.087875
2583.265625 0.067257
2582.827148 0.075986
2582.443359 0.079629
2582.009766 0.070038
2581.620117 0.072535
2581.192383 0.086049
2580.796875 0.074878
2580.374023 0.074760
2579.973633 0.081346
2579.556641 0.084239
2579.150391 0.069541
2578.738281 0.082445
2578.327148 0.068937
2577.919922 0.075907
2577.503906 0.084238
2577.101563 0.074708
2576.679688 0.080686
2576.283203 0.076474
2575.855469 0.070659
2575.464844 0.083573
2575.031250 0.081828
2574.645508 0.077632
2574.207031 0.080045
2573.827148 0.082951
2573.381836 0.073555
2573.007813 0.079383
2572.557617 0.081775
2572.188477 0.080553
2571.732422 0.073523
2571.369141 0.076986
2570.907227 0.070566
2570.549805 0.072828
2570.082031 0.084661
2569.730469 0.081695
2569.256836 0.071711
2568.910156 0.081089
2568.430664 0.076985
2568.090820 0.086992
2567.605469 0.073442
2567.270508 0.072777
2566.779297 0.083412
2566.450195 0.074539
2565.953125 0.079283
2565.629883 0.082806
2565.125977 0.076330
2564.809570 0.063277
2564.299805 0.083358
2563.989258 0.077456
2563.472656 0.079818
2563.167969 0.085718
2562.646484 0.064545
2562.346680 0.076837
2561.819336 0.080370
2561.526367 0.078597
2560.992188 0.078593
2560.705078 0.075038
2560.164063 0.082094
2559.883789 0.078569
2559.336914 0.079144
2559.061523 0.082690
2558.508789 0.082058
2558.240234 0.083266
2557.680664 0.082040
2557.417969 0.083841
2556.852539 0.080264
2556.596680 0.075562
2556.024414 0.079661
2555.774414 0.081451
2555.195313 0.080229
2554.952148 0.082617
2554.367188 0.076113
2554.129883 0.081422
2553.538086 0.076096
2553.307617 0.083767
2552.708984 0.077835
2552.484375 0.081983
2551.878906 0.080158
2551.662109 0.079020
2551.049805 0.076046
2550.838867 0.087850
2550.219727 0.077783
2550.015625 0.082529
2549.390625 0.080105
2549.192383 0.086050
2548.560547 0.075995
2548.369141 0.081910
2547.730469 0.073056
2547.544922 0.077771
2546.899414 0.081805
2546.721680 0.088361
2546.069336 0.069519
2545.897461 0.073032
2545.238281 0.078264
2545.074219 0.089507
2544.407227 0.077663
2544.250000 0.083015
2543.576172 0.071808
2543.425781 0.089475
2542.745117 0.074127
2542.600586 0.085928
2541.913086 0.077028
2541.776367 0.080028
2541.082031 0.081678
2540.951172 0.086485
2540.250000 0.086326
2540.126953 0.084705
2539.417969 0.078143
2539.301758 0.083514
2538.585938 0.078709
2538.476563 0.075266
2537.752930 0.083354
2537.651367 0.088187
2536.920898 0.081005
2536.826172 0.087583
2536.087891 0.079821
2536.000000 0.084041
2535.254883 0.087376
2535.174805 0.075800
2534.421875 0.079786
2534.348633 0.079899
2533.587891 0.075110
2533.522461 0.074011
2532.754883 0.082079
2532.696289 0.085743
2531.920898 0.080896
2531.870117 0.087489
2531.086914 0.084370
2531.042969 0.074558
2530.252930 0.079115
2530.216797 0.086284
2529.418945 0.087240
2529.389648 0.088615
2528.583984 0.068613
2528.562500 0.091533
2527.749023 0.081388
2527.735352 0.079784
2526.914063 0.090087
2526.908203 0.090327
2526.081055 0.085419
2526.079102 0.078582
2525.253906 0.081333
2525.244141 0.083258
2524.425781 0.079572
2524.409180 0.088519
2523.597656 0.076651
2523.573242 0.079712
2522.769531 0.089659
2522.737305 0.083020
2521.941406 0.089643
2521.901367 0.084162
2521.113281 0.094313
2521.065430 0.082402
2520.285156 0.077897
2520.228516 0.078323
2519.456055 0.081396
2519.392578 0.086426
2518.627930 0.081967
2518.555664 0.087566
2517.798828 0.088976
2517.718750 0.085227
2516.969727 0.083107
2516.881836 0.085208
2516.140625 0.084848
2516.043945 0.084030
2515.311523 0.079567
2515.207031 0.077058
2514.481445 0.080137
2514.369141 0.083413
2513.651367 0.081292
2513.531250 0.091502
2512.822266 0.090049
2512.693359 0.078743
2511.992188 0.087694
2511.855469 0.083356
2511.162109 0.081248
2511.016602 0.075814
2510.332031 0.084740
2510.177734 0.082740
2509.500977 0.084140
2509.338867 0.082721
2508.670898 0.084709
2508.500000 0.085594
2507.839844 0.085861
2507.661133 0.077480
2507.008789 0.082342
2506.821289 0.078619
2506.177734 0.077072
2505.982422 0.077445
2505.346680 0.085230
2505.142578 0.090139
2504.515625 0.088717
2504.302734 0.093585
2503.683594 0.082281
2503.461914 0.081435
2502.852539 0.086934
2502.622070 0.083726
2502.020508 0.084001
2501.781250 0.080243
2501.188477 0.081070
2500.940430 0.087728
2500.356445 0.086303
2500.099609 0.093479
2499.524414 0.086287
2499.258789 0.081342
2498.691406 0.081025
2498.416992 0.084785
2497.859375 0.081593
2497.576172 0.077269
2497.026367 0.088570
2496.734375 0.088781
2496.193359 0.084476
2495.892578 0.092796
2495.360352 0.094945
2495.050781 0.077216
2494.527344 0.086774
2494.208008 0.090449
2493.694336 0.074530
2493.365234 0.088700
2492.860352 0.085578
2492.523438 0.087528
2492.027344 0.084980
2491.680664 0.082327
2491.193359 0.084382
2490.836914 0.075401
2490.359375 0.090185
2489.994141 0.085166
2489.525391 0.082024
2489.150391 0.083996
2488.691406 0.079682
2488.306641 0.085127
2487.856445 0.080831
2487.462891 0.087408
2487.022461 0.084886
2486.619141 0.089688
2486.187500 0.090102
2485.775391 0.081045
2485.352539 0.088922
2484.930664 0.092520
2484.517578 0.084257
2484.085938 0.091924
2483.682617 0.087147
2483.241211 0.099370
2482.846680 0.095263
2482.396484 0.084991
2482.011719 0.080145
2481.550781 0.086693
2481.175781 0.085356
2480.706055 0.086099
2480.339844 0.076051
2479.860352 0.095261
2479.503906 0.087066
2479.014648 0.092371
2478.667969 0.089951
2478.168945 0.084319
2477.832031 0.085873
2477.322266 0.084300
2476.995117 0.096299
2476.476563 0.083133
2476.158203 0.081781
2475.629883 0.085407
2475.322266 0.090464
2474.783203 0.091118
2474.485352 0.092186
2473.936523 0.091097
2473.647461 0.086372
2473.088867 0.083056
2472.810547 0.085777
2472.242188 0.087619
2471.973633 0.093873
2471.394531 0.093896
2471.135742 0.086324
2470.546875 0.089867
2470.297852 0.088625
2469.698242 0.085841
2469.459961 0.090925
2468.850586 0.094403
2468.622070 0.089750
2468.001953 0.086945
2467.784180 0.086838
2467.153320 0.104653
2466.946289 0.085086
2466.304688 0.093765
2466.107422 0.087385
2465.456055 0.095458
2465.268555 0.096626
2464.607422 0.095436
2464.429688 0.090244
2463.757813 0.091986
2463.590820 0.091384
2462.908203 0.088537
2462.751953 0.096571
2462.058594 0.091372
2461.913086 0.080943
2461.208984 0.083357
2461.073242 0.088442
2460.358398 0.089046
2460.233398 0.087848
2459.508789 0.092449
2459.394531 0.080319
2458.658203 0.081587
2458.554688 0.094170
2457.807617 0.095258
2457.713867 0.095307
2456.956055 0.090673
2456.874023 0.075654
2456.105469 0.093503
2456.033203 0.091807
2455.253906 0.092341
2455.193359 0.084285
2454.402344 0.086050
2454.352539 0.094081
2453.550781 0.086600
2453.511719 0.095795
2452.699219 0.095124
2452.670898 0.099238
2451.846680 0.088268
2451.829102 0.087683
2450.995117 0.082553
2450.988281 0.093433
2450.146484 0.081396
2450.142578 0.090533
2449.304688 0.089912
2449.290039 0.099163
2448.462891 0.086478
2448.436523 0.087040
2447.621094 0.103737
2447.583984 0.094420
2446.779297 0.091617
2446.730469 0.088143
2445.937500 0.096208
2445.876953 0.092670
2445.094727 0.091582
2445.023438 0.089806
2444.251953 0.092716
2444.169922 0.094899
2443.409180 0.092699
2443.315430 0.080106
2442.566406 0.082895
2442.460938 0.082927
2441.723633 0.087484
2441.606445 0.096535
2440.879883 0.092071
2440.751953 0.087429
2440.037109 0.089176
2439.897461 0.087976
2439.193359 0.082832
2439.041992 0.094197
2438.349609 0.093743
2438.186523 0.087367
2437.505859 0.093726
2437.331055 0.081107
2436.662109 0.091983
2436.475586 0.078252
2435.817383 0.079320
2435.619141 0.085037
2434.973633 0.097695
2434.763672 0.085583
2434.128906 0.095378
2433.907227 0.083863
2433.284180 0.088466
2433.050781 0.088375
2432.439453 0.094193
2432.194336 0.081557
2431.593750 0.097621
2431.336914 0.083237
2430.749023 0.090712
2430.479492 0.085481
2429.903320 0.095861
2429.622070 0.089422
2429.058594 0.084939
2428.764648 0.089967
2428.212891 0.083775
2427.907227 0.083723
2427.367188 0.092938
2427.048828 0.096145
2426.520508 0.082596
2426.191406 0.085944
2425.674805 0.092329
2425.333008 0.085358
2424.828125 0.099765
2424.473633 0.093250
2423.982422 0.092294
2423.615234 0.093227
2423.135742 0.089410
2422.755859 0.092640
2422.289063 0.088820
2421.897461 0.092053
2421.441406 0.087084
2421.038086 0.094289
2420.594727 0.092796
2420.177734 0.083542
2419.747070 0.095642
2419.318359 0.084650
2418.900391 0.092188
2418.458008 0.089143
2418.052734 0.095605
2417.597656 0.081789
2417.205078 0.090435
2416.737305 0.085717
2416.356445 0.094996
2415.876953 0.085696
2415.508789 0.090401
2415.015625 0.089621
2414.660156 0.098392
2414.155273 0.087345
2413.812500 0.080643
2413.293945 0.086197
2412.963867 0.091492
2412.115234 0.080612
2411.266602 0.085741
2410.416992 0.094868
2409.568359 0.087422
2408.718750 0.089119
2407.869141 0.087960
2407.019531 0.089085
2406.169922 0.084500
2405.319336 0.099326
2404.469727 0.087321
2403.619141 0.090157
2402.768555 0.092422
2401.917969 0.088411
2401.066406 0.091816
2400.215820 0.094079
2399.364258 0.087220
2398.513672 0.092333
2397.662109 0.097444
2396.810547 0.088309
2395.958008 0.085444
2395.106445 0.099096
2394.253906 0.082564
2393.402344 0.083117
2392.549805 0.093346
2391.697266 0.086499
2390.843750 0.098431
2389.991211 0.102394
2389.137695 0.090999
2388.284180 0.092687
2387.430664 0.093806
2386.577148 0.087535
2385.723633 0.092633
2384.869141 0.086933
2384.015625 0.088052
2383.161133 0.087467
2382.306641 0.094265
2381.452148 0.080620
2380.597656 0.097634
2379.742188 0.085697
2378.886719 0.090219
2378.032227 0.092471
2377.176758 0.105499
2376.320313 0.090734
2375.464844 0.096386
2374.609375 0.090131
2373.752930 0.097482
2372.896484 0.090663
2372.040039 0.088379
2371.183594 0.100823
2370.326172 0.087778
2369.469727 0.088327
2368.612305 0.090008
2367.754883 0.091689
2366.897461 0.092802
2366.040039 0.093916
2365.182617 0.093332
2364.324219 0.098969
2363.465820 0.091599
2362.607422 0.098365
2361.749023 0.097780
2360.890625 0.098891
2360.031250 0.092092
2359.172852 0.087555
2358.313477 0.088103
2357.454102 0.099943
2356.594727 0.105569
2355.735352 0.094260
2354.875000 0.098191
2354.015625 0.099300
2353.155273 0.098153
2352.294922 0.091930
2351.434570 0.102061
2350.573242 0.094148
2349.712891 0.091312
2348.851563 0.101437
2347.990234 0.100291
2347.128906 0.090694
2346.267578 0.098561
2345.406250 0.100231
2344.543945 0.101337
2343.681641 0.101880
2342.819336 0.096795
2341.957031 0.102965
2341.094727 0.091132
2340.232422 0.093926
2339.369141 0.103467
2338.505859 0.101198
2337.642578 0.097243
2336.779297 0.100034
2335.916016 0.096081
2335.051758 0.092691
2334.188477 0.098851
2333.324219 0.111185
2332.459961 0.102180
2331.595703 0.106089
2330.730469 0.095405
2329.866211 0.116147
2329.000977 0.093685
2328.135742 0.102640
2327.270508 0.105424
2326.405273 0.103160
2325.540039 0.105382
2324.673828 0.109844
2323.807617 0.102538
2322.941406 0.107000
2322.075195 0.101937
2321.208984 0.108637
2320.341797 0.110855
2319.475586 0.105235
2318.608398 0.097379
2317.741211 0.100717
2316.874023 0.093424
2316.005859 0.105152
2315.138672 0.089473
2314.270508 0.106787
2313.402344 0.108443
2312.534180 0.107303
2311.666016 0.103929
2310.797852 0.111730
2309.928711 0.103329
2309.059570 0.096049
2308.190430 0.099938
2307.321289 0.102709
2306.452148 0.107154
2305.582031 0.100436
2304.712891 0.102090
2303.842773 0.105416
2302.972656 0.102049
2302.102539 0.098684
2301.231445 0.106468
2300.361328 0.104217
2299.490234 0.099182
2298.619141 0.104175
2297.748047 0.108053
2296.876953 0.099679
2296.004883 0.096875
2295.133789 0.104092
2294.261719 0.096836
2293.389648 0.103494
2292.517578 0.114043
2291.645508 0.110683
2290.772461 0.103988
2289.899414 0.111751
2289.027344 0.105058
2288.153320 0.115040
2287.280273 0.099459
2286.407227 0.098884
2285.533203 0.098308
2284.660156 0.105508
2283.786133 0.101600
2282.911133 0.102690
2282.037109 0.106554
2281.163086 0.103758
2280.288086 0.100409
2279.413086 0.104271
2278.538086 0.107023
2277.663086 0.112545
2276.787109 0.105871
2275.912109 0.106958
2275.036133 0.106382
2274.160156 0.101929
2273.284180 0.095262
2272.408203 0.109087
2271.531250 0.100760
2270.655273 0.119560
2269.778320 0.112341
2268.901367 0.108445
2268.024414 0.108977
2267.146484 0.109508
2266.269531 0.112250
2265.391602 0.120520
2264.513672 0.113863
2263.635742 0.107209
2262.757813 0.107740
2261.878906 0.109375
2261.000000 0.117637
2260.122070 0.103257
2259.243164 0.102132
2258.363281 0.117566
2257.484375 0.118646
2256.604492 0.115863
2255.725586 0.104256
2254.845703 0.110852
2253.965820 0.114690
2253.084961 0.109705
2252.205078 0.101966
2251.324219 0.106905
2250.443359 0.117351
2249.562500 0.111268
2248.681641 0.111246
2247.800781 0.107920
2246.918945 0.106797
2246.037109 0.106775
2245.155273 0.105653
2244.273438 0.111133
2243.391602 0.115511
2242.509766 0.116037
2241.626953 0.118213
2240.744141 0.109393
2239.861328 0.113768
2238.978516 0.119789
2238.094727 0.121413
2237.211914 0.113698
2236.328125 0.098299
2235.444336 0.123535
2234.560547 0.115825
2233.675781 0.110862
2232.791992 0.113582
2231.907227 0.116851
2231.022461 0.116278
2230.137695 0.110771
2229.252930 0.110200
2228.368164 0.110178
2227.482422 0.119472
2226.596680 0.117804
2225.710938 0.113397
2224.825195 0.115565
2223.938477 0.112803
2223.052734 0.103473
2222.166016 0.112757
2221.279297 0.111639
2220.392578 0.109428
2219.505859 0.117611
2218.618164 0.109930
2217.731445 0.123031
2216.843750 0.109338
2215.956055 0.108769
2215.068359 0.104375
2214.179688 0.109271
2213.291016 0.119081
2212.403320 0.113595
2211.514648 0.116848
2210.625977 0.110819
2209.736328 0.109159
2208.847656 0.108591
2207.958008 0.122753
2207.068359 0.105819
2206.178711 0.124884
2205.289063 0.112863
2204.398438 0.111205
2203.507813 0.114997
2202.618164 0.115518
2201.727539 0.114950
2200.835938 0.108390
2199.945313 0.114902
2199.053711 0.109979
2198.162109 0.115399
2197.270508 0.125716
2196.378906 0.110999
2195.487305 0.110432
2194.594727 0.117480
2193.703125 0.113649
2192.810547 0.107645
2191.917969 0.123930
2191.024414 0.113035
2190.131836 0.105949
2189.238281 0.099952
2188.344727 0.115138
2187.451172 0.110770
2186.557617 0.114005
2185.664063 0.106925
2184.769531 0.106360
2183.875000 0.113934
2182.980469 0.116622
2182.085938 0.108463
2181.191406 0.117659
2180.295898 0.114382
2179.400391 0.118152
2178.504883 0.120295
2177.609375 0.112685
2176.713867 0.119162
2175.817383 0.123469
2174.921875 0.113698
2174.025391 0.122335
2173.128906 0.116357
2172.231445 0.110922
2171.334961 0.116309
2170.437500 0.114662
2169.540039 0.131942
2168.642578 0.103261
2167.745117 0.124320
2166.847656 0.107001
2165.949219 0.129131
2165.050781 0.124782
2164.152344 0.110175
2163.253906 0.124731
2162.354492 0.127404
2161.456055 0.118202
2160.556641 0.115479
2159.657227 0.122469
2158.757813 0.124601
2157.858398 0.122957
2156.958008 0.120775
2156.057617 0.122906
2155.157227 0.117491
2154.256836 0.121238
2153.356445 0.116903
2152.456055 0.113108
2151.554688 0.122777
2150.653320 0.121137
2149.751953 0.121650
2148.850586 0.114628
2147.948242 0.115680
2147.045898 0.116732
2146.144531 0.114018
2145.242188 0.123673
2144.338867 0.116659
2143.436523 0.112872
2142.533203 0.122521
2141.629883 0.117123
2140.726563 0.117635
2139.823242 0.133185
2138.919922 0.112217
2138.015625 0.126687
2137.111328 0.130418
2136.207031 0.120732
2135.302734 0.126071
2134.398438 0.127117
2133.493164 0.129236
2132.588867 0.131889
2131.683594 0.130253
2130.778320 0.135049
2129.872070 0.118947
2128.966797 0.126957
2128.060547 0.126931
2127.154297 0.136007
2126.248047 0.123665
2125.341797 0.133808
2124.434570 0.142342
2123.527344 0.134287
2122.620117 0.134259
2121.712891 0.125674
2120.805664 0.137945
2119.897461 0.130967
2118.990234 0.127198
2118.082031 0.119156
2117.173828 0.141568
2116.265625 0.139402
2115.356445 0.130829
2114.447266 0.137208
2113.539063 0.130240
2112.628906 0.138751
2111.719727 0.129651
2110.810547 0.138159
2109.900391 0.129596
2108.990234 0.121571
2108.080078 0.122078
2107.169922 0.131646
2106.258789 0.132684
2105.348633 0.137451
2104.437500 0.125171
2103.526367 0.120351
2102.615234 0.130974
2101.703125 0.122962
2100.791992 0.126661
2099.879883 0.136212
2098.967773 0.131395
2098.055664 0.128708
2097.142578 0.128149
2096.230469 0.133970
2095.317383 0.136599
2094.404297 0.130193
2093.490234 0.122727
2092.577148 0.137043
2091.663086 0.125330
2090.750000 0.126897
2089.835938 0.125808
2088.920898 0.136926
2088.006836 0.134775
2087.091797 0.137398
2086.177734 0.126762
2085.262695 0.141052
2084.346680 0.117695
2083.431641 0.140462
2082.515625 0.130893
2081.600586 0.150468
2080.684570 0.118654
2079.767578 0.135046
2078.851563 0.133429
2077.934570 0.124930
2077.017578 0.144486
2076.100586 0.130168
2075.183594 0.136489
2074.266602 0.132757
2073.348633 0.137488
2072.430664 0.137987
2071.512695 0.139543
2070.594727 0.139514
2069.676758 0.145296
2068.757813 0.137341
2067.838867 0.133086
2066.919922 0.129362
2066.000977 0.128806
2065.082031 0.132473
2064.162109 0.138777
2063.242188 0.130834
2062.322266 0.131860
2061.402344 0.133414
2060.481445 0.144984
2059.561523 0.140209
2058.640625 0.139125
2057.719727 0.136988
2056.798828 0.132217
2055.876953 0.124816
2054.956055 0.132160
2054.034180 0.142134
2053.112305 0.139472
2052.189453 0.124182
2051.267578 0.139412
2050.344727 0.129388
2049.421875 0.139351
2048.499023 0.140899
2047.576172 0.134035
2046.652344 0.143465
2045.729492 0.141333
2044.805664 0.132372
2043.881836 0.143898
2042.957031 0.130215
2042.033203 0.134911
2041.108398 0.141180
2040.183594 0.135378
2039.258789 0.143217
2038.333984 0.154725
2037.408203 0.143155
2036.483398 0.143649
2035.557617 0.140473
2034.630859 0.145683
2033.705078 0.148795
2032.778320 0.143000
2031.852539 0.135638
2030.925781 0.138352
2030.818359 0.154457
2029.999023 0.127871
2029.892578 0.143954
2029.071289 0.133089
2028.965820 0.146540
2028.144531 0.134114
2028.040039 0.144938
2027.216797 0.129901
2027.113281 0.149615
2026.289063 0.142448
2026.186523 0.148536
2025.361328 0.130904
2025.260742 0.136477
2024.432617 0.143971
2024.333008 0.147426
2023.503906 0.143423
2023.406250 0.148439
2022.576172 0.132408
2022.479492 0.141614
2021.647461 0.141804
2021.551758 0.143673
2020.717773 0.140734
2020.624023 0.146253
2019.789063 0.156925
2019.696289 0.143610
2018.859375 0.146438
2018.768555 0.138880
2017.929688 0.144322
2017.840820 0.151377
2017.000000 0.141160
2016.913086 0.157085
2016.070313 0.143750
2015.984375 0.153398
2015.139648 0.145293
2015.055664 0.153886
2014.209961 0.144223
2014.126953 0.138728
2013.279297 0.143676
2013.198242 0.144433
2012.348633 0.134771
2012.269531 0.151700
2011.416992 0.154072
2011.340820 0.149582
2010.486328 0.150390
2010.411133 0.140691
2009.554688 0.132613
2009.482422 0.153684
2008.623047 0.138854
2008.552734 0.158859
2007.691406 0.153444
2007.623047 0.140599
2006.759766 0.147677
2006.692383 0.149939
2005.827148 0.156000
2005.762695 0.148345
2004.894531 0.145018
2004.833008 0.143108
2003.961914 0.150209
2003.902344 0.150881
2003.029297 0.142361
2002.971680 0.146167
2002.096680 0.143900
2002.041016 0.140414
2001.163086 0.140747
2001.110352 0.149222
2000.229492 0.146456
2000.178711 0.143471
1999.295898 0.147473
1999.248047 0.148117
1998.362305 0.146405
1998.316406 0.159516
1997.427734 0.158361
1997.384766 0.148571
1996.494141 0.146354
1996.453125 0.148539
1995.559570 0.155181
1995.521484 0.152141
1994.625000 0.149427
1994.589844 0.150550
1993.689453 0.145757
1993.657227 0.155188
1992.754883 0.156141
1992.724609 0.146851
1991.819336 0.159756
1991.792969 0.154601
1990.883789 0.150363
1990.860352 0.148342
1989.948242 0.157100
1989.926758 0.148828
1989.012695 0.147190
1988.994141 0.157609
1988.076172 0.147684
1988.061523 0.161203
1987.139648 0.149218
1987.127930 0.147175
1986.203125 0.148152
1986.194336 0.151806
1985.266602 0.148646
1985.260742 0.160578
1984.330078 0.150179
1984.327148 0.152774
1983.392578 0.155867
1983.392578 0.155847
1982.458984 0.142853
1982.455078 0.157365
1981.524414 0.153215
1981.517578 0.150603
1980.589844 0.145918
1980.580078 0.164022
1979.655273 0.151085
1979.641602 0.152605
1978.720703 0.160921
1978.703125 0.147399
1977.786133 0.145841
1977.765625 0.152538
1976.850586 0.159826
1976.826172 0.146817
1975.915039 0.141639
1975.887695 0.147818
1974.979492 0.157694
1974.948242 0.152436
1974.043945 0.149368
1974.009766 0.142070
1973.108398 0.144156
1973.070313 0.152368
1972.172852 0.150871
1972.130859 0.154400
1971.236328 0.149289
1971.190430 0.147138
1970.299805 0.148744
1970.250000 0.141944
1969.363281 0.156490
1969.310547 0.143460
1968.426758 0.137293
1968.370117 0.153747
1967.490234 0.150736
1967.428711 0.164029
1966.553711 0.155370
1966.488281 0.150068
1965.616211 0.166217
1965.546875 0.153129
1964.678711 0.151173
1964.605469 0.155156
1963.741211 0.160463
1963.664063 0.150999
1962.803711 0.147496
1962.722656 0.151996
1961.866211 0.171789
1961.780273 0.161234
1960.928711 0.168137
1960.837891 0.165833
1959.990234 0.154659
1959.895508 0.164251
1959.051758 0.167043
1958.953125 0.163185
1958.113281 0.162876
1958.010742 0.158002
1957.174805 0.160262
1957.067383 0.165685
1956.236328 0.173155
1956.124023 0.168220
1955.296875 0.156587
1955.180664 0.166639
1954.357422 0.165342
1954.237305 0.165574
1953.418945 0.170478
1953.292969 0.159367
1952.479492 0.158052
1952.349609 0.154192
1951.539063 0.150793
1951.405273 0.161351
1950.599609 0.153864
1950.460938 0.151554
1949.660156 0.167258
1949.515625 0.155629
1948.719727 0.156905
1948.571289 0.159702
1947.779297 0.163585
1947.625977 0.161720
1946.838867 0.164587
1946.680664 0.153984
1945.898438 0.162494
1945.735352 0.168318
1944.957031 0.157307
1944.789063 0.164176
1944.016602 0.157279
1943.842773 0.161062
1943.075195 0.158281
1942.896484 0.151282
1942.133789 0.162892
1941.950195 0.158938
1941.192383 0.159770
1941.003906 0.149163
1940.250977 0.164894
1940.056641 0.166041
1939.308594 0.157135
1939.110352 0.171640
1938.366211 0.173075
1938.163086 0.162893
1937.424805 0.157593
1937.215820 0.159784
1936.482422 0.161684
1936.267578 0.156163
1935.539063 0.179673
1935.319336 0.173533
1934.596680 0.163169
1934.372070 0.168376
1933.654297 0.172402
1933.422852 0.165779
1932.710938 0.187293
1932.474609 0.182111
1931.767578 0.159478
1931.526367 0.159056
1930.824219 0.159449
1930.577148 0.161576
1929.880859 0.169705
1929.627930 0.168696
1928.936523 0.155791
1928.678711 0.175302
1927.993164 0.163474
1927.728516 0.162488
1927.048828 0.159846
1926.779297 0.167049
1926.104492 0.169580
1925.829102 0.162925
1925.160156 0.169035
1924.878906 0.165952
1924.215820 0.162326
1923.928711 0.169488
1923.270508 0.157674
1922.977539 0.175574
1922.326172 0.167401
1922.026367 0.172983
1921.380859 0.163263
1921.075195 0.169883
1920.435547 0.162720
1920.124023 0.162703
1919.490234 0.167309
1919.172852 0.164196
1918.543945 0.163173
1918.220703 0.170276
1917.598633 0.165708
1917.268555 0.171257
1916.652344 0.162087
1916.316406 0.163574
1915.706055 0.169236
1915.364258 0.171179
1914.759766 0.175871
1914.411133 0.166046
1913.813477 0.175325
1913.458984 0.168555
1912.866211 0.167092
1912.505859 0.164443
1911.919922 0.169623
1911.552734 0.167969
1910.972656 0.173178
1910.598633 0.168948
1910.025391 0.176732
1909.645508 0.173488
1909.078125 0.158261
1908.691406 0.178026
1908.129883 0.168985
1907.737305 0.167306
1907.182617 0.168954
1906.782227 0.161676
1906.234375 0.168410
1905.828125 0.176888
1905.286133 0.175032
1904.873047 0.181929
1904.337891 0.170395
1903.917969 0.171726
1903.389648 0.170363
1902.962891 0.175242
1902.440430 0.179026
1902.006836 0.178249
1901.492188 0.175925
1901.051758 0.172115
1900.542969 0.182027
1900.095703 0.164462
1899.593750 0.160522
1899.139648 0.179648
1898.644531 0.172248
1898.183594 0.166416
1897.695313 0.165573
1897.226563 0.178044
1896.745117 0.165031
1896.269531 0.182060
1895.794922 0.163978
1895.312500 0.181004
1894.844727 0.175694
1894.355469 0.171838
1893.894531 0.171576
1893.398438 0.175853
1892.944336 0.167970
1892.440430 0.169732
1891.994141 0.178148
1891.482422 0.173746
1891.042969 0.177093
1890.524414 0.163070
1890.091797 0.176550
1889.566406 0.165058
1889.140625 0.174476
1888.607422 0.162489
1888.189453 0.183114
1887.648438 0.170549
1887.238281 0.167271
1886.689453 0.174051
1886.286133 0.177437
1885.730469 0.177046
1885.334961 0.173835
1884.770508 0.173465
1884.382813 0.178899
1883.811523 0.158256
1883.430664 0.162558
1882.851563 0.174901
1882.477539 0.166094
1881.891602 0.178903
1881.525391 0.173194
1880.930664 0.162188
1880.572266 0.170106
1879.970703 0.180841
1879.619141 0.172110
1879.009766 0.175243
1878.666016 0.184805
1878.048828 0.168639
1877.712891 0.171027
1877.086914 0.175667
1876.759766 0.171503
1876.125977 0.173102
1875.805664 0.181647
1875.164063 0.172558
1874.852539 0.189244
1874.202148 0.181093
1873.898438 0.172932
1873.240234 0.178025
1872.943359 0.174933
1872.277344 0.178487
1871.989258 0.171849
1871.315430 0.177942
1871.035156 0.184017
1870.352539 0.177396
1870.080078 0.176358
1869.389648 0.173828
1869.125000 0.175816
1868.425781 0.176810
1868.169922 0.174259
1867.462891 0.189862
1867.214844 0.179813
1866.499023 0.172196
1866.258789 0.184349
1865.535156 0.170645
1865.303711 0.171620
1864.570313 0.171612
1864.347656 0.177680
1863.606445 0.186163
1863.391602 0.175108
1862.641602 0.173543
1862.435547 0.170507
1861.676758 0.183058
1861.479492 0.178085
1860.711914 0.176529
1860.522461 0.173462
1859.746094 0.174974
1859.565430 0.186491
1858.781250 0.174433
1858.608398 0.186949
1857.815430 0.175921
1857.651367 0.174847
1856.849609 0.186532
1856.694336 0.174304
1855.882813 0.180415
1855.736328 0.176774
1854.916992 0.181900
1854.779297 0.172213
1853.950195 0.177812
1853.821289 0.182212
1852.983398 0.186389
1852.863281 0.175143
1852.015625 0.181289
1851.905273 0.185638
1851.048828 0.177204
1850.946289 0.184591
1850.081055 0.181726
1849.988281 0.180034
1849.113281 0.173593
1849.029297 0.184504
1848.145508 0.186210
1848.070313 0.184461
1847.176758 0.189715
1847.111328 0.182412
1846.208008 0.179057
1846.151367 0.185876
1845.239258 0.188125
1845.192383 0.173310
1844.270508 0.169381
1844.232422 0.188793
1843.301758 0.196141
1843.272461 0.175731
1842.332031 0.190038
1842.312500 0.195211
1841.362305 0.184443
1841.352539 0.185656
1840.392578 0.175818
1840.391602 0.186112
1839.430664 0.181341
1839.422852 0.191070
1838.470703 0.187871
1838.452148 0.201026
1837.508789 0.197933
1837.481445 0.186980
1836.547852 0.191332
1836.510742 0.187435
1835.586914 0.192304
1835.540039 0.189889
1834.625000 0.197818
1834.568359 0.202833
1833.663086 0.196266
1833.597656 0.185803
1832.701172 0.193706
1832.625000 0.198242
1831.739258 0.201738
1831.653320 0.192704
1830.777344 0.197161
1830.681641 0.190661
1829.814453 0.206197
1829.708984 0.202092
1828.851563 0.198092
1828.736328 0.195559
1827.888672 0.184447
1827.763672 0.192021
1826.925781 0.201542
1826.790039 0.205937
1825.962891 0.197977
1825.817383 0.203395
1824.999023 0.211033
1824.843750 0.204343
1824.035156 0.200417
1823.869141 0.187352
1823.071289 0.201889
1822.895508 0.209725
1822.107422 0.193796
1821.920898 0.188757
1821.143555 0.187719
1820.947266 0.202155
1820.178711 0.189192
1819.971680 0.195137
1819.214844 0.187645
1818.997070 0.200565
1818.250000 0.180567
1818.021484 0.202009
1817.285156 0.203664
1817.046875 0.196489
1816.319336 0.192061
1816.070313 0.187490
1815.354492 0.185991
1815.094727 0.193908
1814.388672 0.199524
1814.119141 0.193365
1813.422852 0.187928
1813.142578 0.192324
1812.457031 0.201456
1812.166016 0.186812
1811.491211 0.192877
1811.188477 0.201172
1810.525391 0.195351
1810.211914 0.201124
1809.558594 0.201337
1809.234375 0.195117
1808.591797 0.204310
1808.256836 0.193581
1807.625000 0.202262
1807.279297 0.188572
1806.658203 0.183656
1806.300781 0.196464
1805.690430 0.191146
1805.322266 0.198896
1804.723633 0.198130
1804.343750 0.190914
1803.755859 0.198593
1803.365234 0.191363
1802.788086 0.195044
1802.386719 0.183387
1801.820313 0.201021
1801.407227 0.187306
1800.851563 0.190457
1800.427734 0.181316
1799.883789 0.200942
1799.448242 0.195140
1798.915039 0.192386
1798.467773 0.189645
1797.946289 0.195353
1797.488281 0.190094
1796.977539 0.198320
1796.507813 0.192028
1796.007813 0.198281
1795.527344 0.201877
1795.039063 0.199243
1794.545898 0.189461
1794.069336 0.207212
1793.564453 0.197327
1793.099609 0.194660
1792.583008 0.193323
1792.129883 0.198624
1791.601563 0.197231
1791.160156 0.195084
1790.620117 0.198665
1790.189453 0.194045
1789.637695 0.196640
1789.218750 0.202007
1788.655273 0.200050
1788.248047 0.197468
1787.672852 0.220741
1787.277344 0.219921
1786.690430 0.201926
1786.306641 0.201387
1785.707031 0.196941
1785.334961 0.207843
1784.723633 0.196893
1784.364258 0.199809
1783.740234 0.203258
1783.392578 0.206761
1782.756836 0.205674
1782.420898 0.218205
1781.772461 0.197241
1781.448242 0.211172
1780.788086 0.202122
1780.476563 0.207138
1779.803711 0.210451
1779.503906 0.210091
1778.819336 0.198573
1778.531250 0.211047
1777.833984 0.203450
1777.558594 0.211005
1776.848633 0.213742
1776.585938 0.206474
1775.863281 0.202857
1775.612305 0.210921
1774.877930 0.219544
1774.638672 0.224340
1773.891602 0.203741
1773.666016 0.217815
1772.905273 0.208119
1772.691406 0.212290
1771.918945 0.206592
1771.717773 0.219223
1770.931641 0.222667
1770.744141 0.207032
1769.945313 0.213658
1769.769531 0.206489
1768.958008 0.216105
1768.794922 0.216760
1767.970703 0.223529
1767.820313 0.195576
1766.982422 0.229955
1766.845703 0.215670
1765.995117 0.215975
1765.870117 0.217090
1765.006836 0.221405
1764.894531 0.226856
1764.018555 0.217879
1763.919922 0.211091
1763.029297 0.229772
1762.944336 0.213492
1762.041016 0.217295
1761.967773 0.213930
1761.051758 0.224211
1760.992188 0.204556
1760.062500 0.212735
1760.015625 0.227555
1759.072266 0.227103
1759.039063 0.216711
1758.083008 0.230039
1758.062500 0.216167
1757.092773 0.231980
1757.085938 0.219053
1756.108398 0.220014
1756.101563 0.204790
1755.131836 0.209046
1755.111328 0.216005
1754.154297 0.231841
1754.120117 0.206647
1753.176758 0.236758
1753.128906 0.220302
1752.198242 0.214379
1751.220703 0.219297
1750.242188 0.213301
1749.263672 0.220697
1748.285156 0.237512
1747.306641 0.236968
1746.327148 0.232956
1745.348633 0.228944
1744.369141 0.219485
1743.389648 0.222908
1742.409180 0.225340
1741.429688 0.236188
1740.449219 0.223764
1739.468750 0.220254
1738.488281 0.232086
1737.507813 0.234018
1736.526367 0.227541
1735.544922 0.230957
1734.563477 0.222504
1733.582031 0.215044
1732.600586 0.242679
1731.618164 0.220887
1730.636719 0.230724
1729.654297 0.217834
1728.671875 0.207419
1727.688477 0.230090
1726.706055 0.223626
1725.722656 0.228516
1724.739258 0.223535
1723.755859 0.231384
1722.771484 0.219992
1721.788086 0.229317
1720.803711 0.227792
1719.819336 0.230210
1718.834961 0.224249
1717.850586 0.242436
1716.865234 0.228100
1715.879883 0.236427
1714.894531 0.228992
1713.909180 0.219098
1712.923828 0.241205
1711.937500 0.232790
1710.951172 0.225361
1709.964844 0.243518
1708.978516 0.233139
1707.991211 0.232108
1707.004883 0.228620
1706.017578 0.243811
1705.030273 0.233441
1704.042969 0.236833
1703.054688 0.234820
1702.066406 0.235754
1701.078125 0.245527
1700.089844 0.248914
1699.101563 0.242973
1698.113281 0.253719
1697.124023 0.244836
1696.134766 0.258031
1695.145508 0.238850
1694.155273 0.250080
1693.166016 0.248558
1692.175781 0.238704
1691.185547 0.240125
1690.195313 0.251835
1689.205078 0.233659
1688.213867 0.242916
1687.222656 0.250211
1686.231445 0.227151
1685.240234 0.263324
1684.249023 0.240270
1683.256836 0.250495
1682.264648 0.256314
1681.272461 0.244035
1680.280273 0.252297
1679.287109 0.249312
1678.294922 0.246328
1677.301758 0.252141
1676.308594 0.237922
1675.315430 0.244711
1674.321289 0.246126
1673.327148 0.255840
1672.333008 0.249930
1671.338867 0.239629
1670.344727 0.240068
1669.349609 0.237579
1668.355469 0.233628
1667.360352 0.246259
1666.365234 0.235970
1665.369141 0.256881
1664.374023 0.258290
1663.377930 0.258237
1662.381836 0.250389
1661.384766 0.239136
1660.388672 0.250773
1659.391602 0.260458
1658.395508 0.261377
1657.397461 0.252564
1656.400391 0.263216
1655.403320 0.260243
1654.405273 0.250462
1653.407227 0.265483
1652.409180 0.242094
1651.411133 0.253223
1650.412109 0.260945
1649.413086 0.258462
1648.414063 0.256951
1647.415039 0.258840
1646.416016 0.288890
1645.416016 0.259704
1644.416016 0.258679
1643.416016 0.256685
1642.416016 0.258572
1641.415039 0.271129
1640.415039 0.271073
1639.414063 0.269562
1638.413086 0.269991
1637.411133 0.283019
1636.410156 0.258734
1635.408203 0.269822
1634.406250 0.275578
1633.404297 0.278910
1632.402344 0.275463
1631.399414 0.269114
1630.396484 0.297609
1629.393555 0.289806
1628.390625 0.269429
1627.387695 0.286783
1626.383789 0.290108
1625.379883 0.288114
1624.375977 0.289021
1623.372070 0.292826
1622.367188 0.289866
1621.362305 0.297051
1620.357422 0.290711
1619.352539 0.298375
1618.347656 0.299761
1617.341797 0.299216
1616.335938 0.307356
1615.330078 0.292819
1614.324219 0.286006
1613.318359 0.304752
1612.311523 0.305652
1611.304688 0.289682
1610.297852 0.296368
1609.291016 0.306424
1608.283203 0.304433
1607.275391 0.296182
1606.267578 0.292268
1605.259766 0.302798
1604.251953 0.305141
1603.243164 0.302189
1602.234375 0.297796
1601.225586 0.302063
1600.216797 0.299114
1599.207031 0.308667
1598.198242 0.308602
1597.188477 0.307095
1596.178711 0.306550
1595.167969 0.306966
1594.158203 0.307382
1593.147461 0.306357
1592.136719 0.310133
1591.125977 0.305748
1590.114258 0.298966
1589.103516 0.305620
1588.091797 0.306035
1587.080078 0.303572
1586.067383 0.286247
1585.055664 0.297692
1584.042969 0.305777
1583.030273 0.288462
1582.017578 0.297504
1581.003906 0.294088
1579.991211 0.302167
1578.977539 0.299231
1577.963867 0.294381
1576.949219 0.299583
1575.935547 0.285166
1574.920898 0.290846
1573.906250 0.287915
1572.891602 0.294070
1571.876953 0.282056
1570.861328 0.286776
1569.845703 0.288149
1568.830078 0.277100
1567.814453 0.293759
1566.797852 0.281758
1565.782227 0.268330
1564.765625 0.278775
1563.749023 0.276806
1562.731445 0.282951
1561.714844 0.272396
1560.697266 0.282831
1559.679688 0.263697
1558.662109 0.276990
1557.643555 0.276931
1556.625000 0.278779
1555.607422 0.286342
1554.587891 0.272468
1553.569336 0.277172
1552.549805 0.281875
1551.531250 0.274198
1550.511719 0.282707
1549.491211 0.284550
1548.471680 0.274975
1547.451172 0.279673
1546.430664 0.288173
1545.410156 0.270045
1544.389648 0.284248
1543.368164 0.293216
1542.346680 0.279375
1541.325195 0.279791
1540.303711 0.284955
1539.282227 0.273974
1538.259766 0.284359
1537.237305 0.269111
1536.214844 0.294677
1535.191406 0.285126
1534.168945 0.281745
1533.145508 0.278840
1532.122070 0.275461
1531.098633 0.282039
1530.074219 0.294774
1529.050781 0.277654
1528.026367 0.275226
1527.000977 0.282745
1525.976563 0.273214
1524.951172 0.277890
1523.926758 0.278304
1522.901367 0.266887
1521.875000 0.283389
1520.849609 0.288531
1519.823242 0.275701
1518.796875 0.281788
1517.770508 0.277474
1516.743164 0.277887
1515.716797 0.279717
1514.689453 0.275406
1513.662109 0.266373
1512.634766 0.277648
1511.606445 0.288447
1510.578125 0.284137
1509.549805 0.274638
1508.521484 0.276467
1507.493164 0.273105
1506.463867 0.296154
1505.434570 0.269216
1504.405273 0.289428
1503.375977 0.292664
1502.345703 0.293073
1501.315430 0.294423
1500.285156 0.296243
1499.254883 0.286291
1498.223633 0.282463
1497.193359 0.292757
1496.162109 0.290812
1495.130859 0.277106
1494.098633 0.283631
1493.067383 0.294856
1492.035156 0.275516
1491.002930 0.282038
1489.969727 0.295606
1488.937500 0.278627
1487.904297 0.286553
1486.871094 0.284142
1485.837891 0.284081
1484.803711 0.277447
1483.770508 0.283958
1482.736328 0.276858
1481.702148 0.279613
1480.666992 0.270172
1479.632813 0.279961
1478.597656 0.283651
1477.562500 0.265309
1476.527344 0.279780
1475.491211 0.298929
1474.455078 0.300738
1473.418945 0.289901
1472.382813 0.302481
1471.346680 0.285094
1470.309570 0.294861
1469.272461 0.293861
1468.235352 0.285377
1467.198242 0.285782
1466.160156 0.302087
1465.122070 0.292671
1464.083984 0.303826
1463.045898 0.298152
1462.006836 0.303694
1460.968750 0.293819
1459.929688 0.309166
1458.889648 0.303963
1457.850586 0.298762
1456.810547 0.312232
1455.771484 0.311230
1454.730469 0.302299
1453.690430 0.302700
1452.649414 0.318488
1451.609375 0.316554
1450.568359 0.300637
1449.526367 0.328066
1448.485352 0.316347
1447.443359 0.315812
1446.401367 0.323660
1445.359375 0.323124
1444.316406 0.336553
1443.274414 0.322983
1442.231445 0.317794
1441.188477 0.328890
1440.144531 0.333934
1439.101563 0.337581
1438.057617 0.331928
1437.013672 0.346729
1435.968750 0.354552
1434.924805 0.347042
1433.879883 0.359971
1432.834961 0.355249
1431.790039 0.370956
1430.744141 0.375981
1429.698242 0.377755
1428.653320 0.390663
1427.606445 0.379445
1426.560547 0.386782
1425.513672 0.400607
1424.466797 0.411645
1423.419922 0.377722
1422.373047 0.373932
1421.325195 0.362268
1420.277344 0.389515
1419.229492 0.353311
1418.181641 0.361104
1417.132813 0.367967
1416.084961 0.346137
1415.036133 0.343748
1413.986328 0.349685
1412.937500 0.361632
1411.887695 0.360628
1410.837891 0.359161
1409.788086 0.356772
1408.738281 0.355769
1407.687500 0.374630
1406.636719 0.361154
1405.585938 0.366154
1404.534180 0.372074
1403.483398 0.365531
1402.431641 0.352992
1401.379883 0.356143
1400.327148 0.358832
1399.275391 0.362441
1398.222656 0.362361
1397.169922 0.354446
1396.117188 0.340543
1395.063477 0.354289
1394.009766 0.337168
1392.956055 0.338015
1391.902344 0.346688
1390.848633 0.355817
1389.793945 0.348375
1388.739258 0.365782
1387.684570 0.344541
1386.628906 0.367459
1385.574219 0.353124
1384.518555 0.381087
1383.462891 0.375028
1382.406250 0.385513
1381.350586 0.395075
1380.293945 0.379371
1379.237305 0.421991
1378.179688 0.409043
1377.123047 0.415837
1376.065430 0.440524
1375.007813 0.451896
1373.949219 0.408680
1372.891602 0.418677
1371.833008 0.434172
1370.774414 0.426283
1369.715820 0.417481
1368.656250 0.409600
1367.596680 0.401263
1366.537109 0.382855
1365.477539 0.379565
1364.417969 0.367121
1363.357422 0.352394
1362.296875 0.339962
1361.236328 0.331652
1360.174805 0.353530
1359.113281 0.349794
1358.052734 0.332801
1356.990234 0.343696
1355.928711 0.343619
1354.866211 0.333948
1353.803711 0.339355
1352.741211 0.339279
1351.678711 0.346507
1350.615234 0.353276
1349.551758 0.347265
1348.488281 0.350381
1347.424805 0.342092
1346.360352 0.356608
1345.295898 0.363367
1344.231445 0.344141
1343.166992 0.347254
1342.101563 0.348543
1341.036133 0.335710
1339.970703 0.339733
1338.905273 0.343300
1337.838867 0.354603
1336.772461 0.345876
1335.706055 0.350803
1334.639648 0.356183
1333.572266 0.342914
1332.504883 0.346020
1331.437500 0.360943
1330.370117 0.372224
1329.302734 0.375321
1328.234375 0.382505
1327.166016 0.383781
1326.096680 0.379154
1325.028320 0.383608
1323.958984 0.383068
1322.889648 0.382527
1321.820313 0.383348
1320.750000 0.381901
1319.679688 0.371385
1318.609375 0.375381
1317.539063 0.368951
1316.468750 0.373852
1315.397461 0.357005
1314.326172 0.353300
1313.254883 0.364994
1312.182617 0.353140
1311.142578 0.349892
1311.110352 0.362870
1310.069336 0.339404
1310.038086 0.356084
1308.997070 0.335708
1308.965820 0.346520
1307.923828 0.351011
1307.892578 0.329271
1306.851563 0.350027
1306.820313 0.333734
1305.778320 0.339096
1305.747070 0.342265
1304.704102 0.345348
1304.672852 0.332711
1303.630859 0.333971
1303.599609 0.334911
1302.557617 0.330733
1302.525391 0.333495
1301.483398 0.325689
1301.451172 0.327562
1300.409180 0.331486
1300.376953 0.336989
1299.334961 0.332765
1299.301758 0.333767
1298.259766 0.330432
1298.227539 0.328740
1297.185547 0.322233
1297.152344 0.334098
1296.110352 0.343066
1296.076172 0.332086
1295.035156 0.320438
1295.000977 0.334266
1293.959961 0.341588
1293.924805 0.332837
1292.883789 0.329345
1292.848633 0.330958
1291.808594 0.343269
1291.772461 0.334038
1290.732422 0.349521
1290.695313 0.347482
1289.656250 0.344497
1289.618164 0.340644
1288.580078 0.360214
1288.541016 0.339666
1287.502930 0.361501
1287.463867 0.348596
1286.426758 0.350619
1286.386719 0.360223
1285.349609 0.353709
1285.308594 0.361942
1284.272461 0.349590
1284.230469 0.357358
1283.195313 0.355833
1283.152344 0.336128
1282.118164 0.355768
1282.073242 0.329303
1281.040039 0.341745
1280.994141 0.346319
1279.961914 0.338531
1279.915039 0.330052
1278.883789 0.343870
1278.835938 0.324132
1277.805664 0.342907
1277.755859 0.339339
1276.727539 0.325297
1276.676758 0.315895
1275.648438 0.316691
1275.596680 0.321214
1274.569336 0.314834
1274.515625 0.326979
1273.490234 0.316575
1273.435547 0.301309
1272.411133 0.312920
1272.354492 0.309769
1271.332031 0.316908
1271.273438 0.313738
1270.251953 0.305164
1270.191406 0.313217
1269.171875 0.301064
1269.110352 0.297892
1268.091797 0.305052
1268.028320 0.295581
1267.011719 0.303199
1266.946289 0.308517
1265.931641 0.310329
1265.864258 0.306653
1264.850586 0.297250
1264.781250 0.304341
1263.769531 0.304827
1263.698242 0.295757
1262.688477 0.306117
1262.615234 0.294345
1261.607422 0.304714
1261.532227 0.300548
1260.526367 0.309593
1260.448242 0.306748
1259.444336 0.316713
1259.364258 0.313840
1258.362305 0.327419
1258.280273 0.315558
1257.280273 0.306730
1257.196289 0.302508
1256.198242 0.308915
1256.111328 0.310939
1255.115234 0.299892
1255.026367 0.295212
1254.033203 0.309248
1253.941406 0.309901
1252.950195 0.316808
1252.856445 0.306700
1251.867188 0.314061
1251.770508 0.296348
1250.783203 0.302804
1250.684570 0.315496
1249.700195 0.313944
1249.598633 0.309168
1248.616211 0.311646
1248.511719 0.293909
1247.532227 0.318751
1247.425781 0.308578
1246.448242 0.308397
1246.338867 0.299577
1245.364258 0.307444
1245.250977 0.306203
1244.279297 0.315888
1244.164063 0.319520
1243.195313 0.307329
1243.076172 0.309631
1242.110352 0.316216
1241.988281 0.310005
1241.024414 0.312580
1240.900391 0.317068
1239.939453 0.316098
1239.812500 0.302282
1238.853516 0.320061
1238.723633 0.306669
1237.768555 0.308381
1237.634766 0.310163
1236.682617 0.315472
1236.544922 0.315437
1235.595703 0.323008
1235.456055 0.304228
1234.509766 0.317140
1234.366211 0.305493
1233.422852 0.317080
1233.276367 0.301415
1232.336914 0.321486
1232.186523 0.304461
1231.250000 0.316514
1231.095703 0.304390
1230.162109 0.308420
1230.004883 0.309658
1229.075195 0.328443
1228.914063 0.302024
1227.987305 0.321689
1227.823242 0.312627
1226.899414 0.314490
1226.731445 0.308108
1225.811523 0.313539
1225.639648 0.322260
1224.723633 0.305899
1224.547852 0.301743
1223.634766 0.318324
1223.456055 0.311891
1222.546875 0.293747
1222.363281 0.309153
1221.458008 0.307953
1221.270508 0.303308
1220.368164 0.302547
1220.177734 0.308120
1219.279297 0.318527
1219.084961 0.297839
1218.189453 0.311786
1217.991211 0.313302
1217.100586 0.312172
1216.897461 0.308348
1216.010742 0.296529
1215.803711 0.316703
1214.919922 0.310272
1214.708984 0.318403
1213.830078 0.330686
1213.614258 0.323649
1212.739258 0.329288
1212.519531 0.314265
1211.648438 0.314098
1211.424805 0.331917
1210.557617 0.320710
1210.329102 0.334054
1209.466797 0.346888
1209.234375 0.326889
1208.375977 0.345487
1208.138672 0.334340
1207.284180 0.347644
1207.041992 0.336475
1206.192383 0.337799
1205.946289 0.335511
1205.100586 0.346177
1204.849609 0.334104
1204.007813 0.341668
1203.752930 0.326947
1202.916016 0.351375
1202.655273 0.328639
1201.823242 0.334430
1201.558594 0.338733
1200.730469 0.326373
1200.460938 0.349706
1199.637695 0.337409
1199.362305 0.351833
1198.543945 0.355543
1198.264648 0.343354
1197.451172 0.365682
1197.166016 0.350342
1196.357422 0.354075
1196.067383 0.340542
1195.263672 0.355337
1194.968750 0.353268
1194.168945 0.350833
1193.870117 0.365104
1193.075195 0.360078
1192.770508 0.369432
1191.980469 0.370205
1191.670898 0.369786
1190.885742 0.363485
1190.570313 0.367933
1189.791016 0.370948
1189.470703 0.352409
1188.696289 0.377080
1188.370117 0.361145
1187.600586 0.373020
1187.269531 0.357973
1186.504883 0.350358
1186.167969 0.349074
1185.409180 0.346747
1185.067383 0.333128
1184.313477 0.341810
1183.965820 0.338335
1183.216797 0.319167
1182.864258 0.332529
1182.121094 0.340791
1181.761719 0.324524
1181.024414 0.324795
1180.659180 0.305958
1179.927734 0.311017
1179.556641 0.306325
1178.830078 0.309187
1178.454102 0.297012
1177.733398 0.292764
1177.351563 0.294302
1176.635742 0.312162
1176.248047 0.304348
1175.538086 0.289997
1175.144531 0.294162
1174.440430 0.304968
1174.040039 0.297609
1173.341797 0.294745
1172.936523 0.295340
1172.243164 0.307941
1171.832031 0.284725
1171.145508 0.290212
1170.727539 0.286853
1170.045898 0.287064
1169.622070 0.298203
1168.947266 0.294956
1168.517578 0.293302
1167.848633 0.290483
1167.412109 0.278307
1166.749023 0.305433
1166.306641 0.295795
1165.649414 0.290811
1165.200195 0.305816
1164.549805 0.285018
1164.093750 0.281617
1163.449219 0.283638
1162.987305 0.284620
1162.348633 0.281378
1161.880859 0.301212
1161.249023 0.281763
1160.773438 0.287990
1160.147461 0.289202
1159.666016 0.284853
1159.046875 0.282093
1158.558594 0.289605
1157.946289 0.282038
1157.451172 0.280775
1156.844727 0.283744
1156.342773 0.285086
1155.743164 0.270914
1155.234375 0.279326
1154.641602 0.273943
1154.125977 0.277071
1153.539063 0.279613
1153.017578 0.278317
1152.436523 0.268552
1151.908203 0.282625
1151.334961 0.277742
1150.798828 0.280370
1150.231445 0.282528
1149.689453 0.268933
1149.128906 0.288632
1148.579102 0.285482
1148.026367 0.277137
1147.468750 0.267930
1146.922852 0.272245
1146.358398 0.286655
1145.819336 0.277028
1145.248047 0.280907
1144.715820 0.273456
1144.136719 0.274287
1143.611328 0.272962
1143.025391 0.282954
1142.506836 0.269831
1141.914063 0.274591
1141.403320 0.287353
1140.801758 0.268415
1140.297852 0.280267
1139.689453 0.285804
1139.193359 0.288556
1138.577148 0.268285
1138.088867 0.279277
1137.464844 0.281304
1136.983398 0.278344
1136.351563 0.275132
1135.877930 0.278288
1135.239258 0.275937
1134.771484 0.275600
1134.125000 0.264975
1133.666016 0.286514
1133.011719 0.285825
1132.559570 0.279877
1131.897461 0.266153
1131.453125 0.268856
1130.783203 0.291783
1130.346680 0.277573
1129.668945 0.276038
1129.240234 0.283216
1128.553711 0.275536
1128.132813 0.294556
1127.439453 0.278515
1127.025391 0.274338
1126.324219 0.264525
1125.917969 0.288304
1125.208008 0.273595
1124.810547 0.272914
1124.092773 0.269180
1123.702148 0.264100
1122.976563 0.272592
1122.594727 0.288569
1121.859375 0.278176
1121.486328 0.272750
1120.743164 0.288537
1120.377930 0.277511
1119.625977 0.292377
1119.268555 0.280081
1118.508789 0.276235
1118.159180 0.276962
1117.391602 0.267049
1117.050781 0.278656
1116.273438 0.268286
1115.940430 0.266354
1115.155273 0.277335
1114.831055 0.277669
1114.037109 0.273796
1113.721680 0.275865
1112.918945 0.265921
1112.611328 0.273187
1111.799805 0.275830
1111.500977 0.265265
1110.680664 0.254083
1110.389648 0.265649
1109.561523 0.257923
1109.279297 0.265158
1108.441406 0.266527
1108.167969 0.257244
1107.321289 0.259962
1107.056641 0.266798
1106.201172 0.259899
1105.945313 0.263252
1105.081055 0.262000
1104.833984 0.264944
1103.959961 0.266265
1103.721680 0.260091
1102.838867 0.258409
1102.609375 0.260911
1101.717773 0.259211
1101.497070 0.264348
1100.595703 0.256118
1100.384766 0.265166
1099.473633 0.256488
1099.271484 0.267293
1098.351563 0.262046
1098.158203 0.265495
1097.229492 0.240366
1097.044922 0.256724
1096.106445 0.264078
1095.931641 0.256236
1094.983398 0.246729
1094.818359 0.252263
1093.860352 0.262220
1093.704102 0.258310
1092.737305 0.257836
1092.589844 0.253032
1091.613281 0.248273
1091.475586 0.256464
1090.489258 0.242168
1090.360352 0.245528
1089.364258 0.243835
1089.246094 0.262018
1088.240234 0.237734
1088.130859 0.241077
1087.115234 0.248459
1087.015625 0.244508
1085.989258 0.263922
1085.900391 0.249243
1084.864258 0.250060
1084.784180 0.261369
1083.738281 0.240946
1083.667969 0.262621
1082.612305 0.245627
1082.551758 0.253003
1081.486328 0.246858
1081.435547 0.246867
1080.359375 0.245935
1080.318359 0.255073
1079.232422 0.244152
1079.202148 0.259800
1078.105469 0.258298
1078.084961 0.254534
1076.977539 0.256081
1076.966797 0.244928
1075.849609 0.253006
1075.849609 0.241839
1074.731445 0.251222
1074.721680 0.249603
1073.613281 0.246858
1073.593750 0.252156
1072.495117 0.247657
1072.464844 0.241691
1071.376953 0.257259
1071.335938 0.257482
1070.257813 0.250700
1070.207031 0.264293
1069.138672 0.254552
1069.077148 0.273250
1068.019531 0.252332
1067.948242 0.255141
1066.900391 0.257048
1066.817383 0.263666
1065.781250 0.253095
1065.687500 0.255013
1064.661133 0.260409
1064.556641 0.249370
1063.541016 0.243027
1063.425781 0.248449
1062.419922 0.268964
1062.294922 0.242381
1061.299805 0.241628
1061.163086 0.241891
1060.178711 0.243743
1060.032227 0.256409
1059.057617 0.249320
1058.899414 0.245199
1057.936523 0.243643
1057.767578 0.249851
1056.815430 0.260900
1056.634766 0.246361
1055.693359 0.250031
1055.501953 0.257864
1054.571289 0.256900
1054.369141 0.246237
1053.449219 0.250793
1053.235352 0.244462
1052.327148 0.252471
1052.101563 0.260238
1051.204102 0.241181
1050.967773 0.251614
1050.081055 0.259713
1049.833984 0.250694
1048.958008 0.241081
1048.699219 0.262607
1047.834961 0.252694
1047.564453 0.265961
1046.710938 0.251778
1046.428711 0.253497
1045.586914 0.246977
1045.293945 0.259843
1044.462891 0.261603
1044.158203 0.257641
1043.338867 0.264570
1043.021484 0.261420
1042.213867 0.256317
1041.885742 0.259219
1041.089844 0.258421
1040.749023 0.268119
1039.964844 0.273895
1039.612305 0.260795
1038.838867 0.258314
1038.474609 0.259021
1037.713867 0.255673
1037.337891 0.255543
1036.587891 0.268552
1036.200195 0.266567
1035.461914 0.262463
1035.061523 0.259677
1034.335938 0.264993
1033.923828 0.256627
1033.209961 0.275277
1032.785156 0.285968
1032.083008 0.264453
1031.646484 0.262035
1030.956055 0.278177
1030.506836 0.267505
1029.829102 0.264773
1029.367188 0.264882
1028.701172 0.270744
1028.227539 0.252468
1027.574219 0.269397
1027.087891 0.258788
1026.446289 0.264608
1025.947266 0.267658
1025.318359 0.269715
1024.806641 0.263335
1024.189453 0.264068
1023.666016 0.266245
1023.061523 0.280352
1022.524414 0.266602
1021.932617 0.275135
1021.382813 0.260157
1020.803711 0.268631
1020.241211 0.250316
1019.674805 0.273731
1019.098633 0.268096
1018.544922 0.272385
1017.957031 0.257408
1017.415039 0.270610
1016.813477 0.262863
1016.285156 0.257241
1015.670898 0.261097
1015.155273 0.268350
1014.527344 0.266972
1014.024414 0.263143
1013.383789 0.272419
1012.894531 0.268238
1012.240234 0.268107
1011.763672 0.276764
1011.095703 0.260828
1010.631836 0.279280
1009.951172 0.271785
1009.500977 0.270643
1008.806641 0.266628
1008.369141 0.282593
1007.662109 0.267830
1007.237305 0.272245
1006.516602 0.266490
1006.105469 0.274331
1005.371094 0.279975
1004.972656 0.276845
1004.224609 0.273551
1003.840820 0.266075
1003.079102 0.262473
1002.708008 0.275872
1001.932617 0.276372
1001.575195 0.285236
1000.785156 0.269107
1000.441406 0.283035
999.638672 0.265653
999.307617 0.274414
998.491211 0.266853
998.173828 0.288909
997.342773 0.265938
997.040039 0.275582
996.195313 0.265869
995.906250 0.268679
995.046875 0.274674
994.771484 0.283593
993.898438 0.261928
993.636719 0.269421
992.749023 0.266084
992.501953 0.261668
991.599609 0.254614
991.367188 0.262041
990.450195 0.258347
990.231445 0.262840
989.300781 0.256169
989.095703 0.259794
987.959961 0.261448
986.824219 0.265237
985.687500 0.252370
984.550781 0.261709
983.414063 0.272325
982.277344 0.251784
981.139648 0.277330
980.001953 0.267034
978.864258 0.273801
977.726563 0.279713
976.587891 0.251518
975.449219 0.279594
974.310547 0.270587
973.171875 0.276920
972.032227 0.276009
970.893555 0.290430
969.752930 0.279298
968.613281 0.272003
967.473633 0.280031
966.333008 0.284652
965.192383 0.284166
964.050781 0.279002
962.910156 0.287873
961.768555 0.283560
960.626953 0.288600
959.485352 0.283015
958.342773 0.279131
957.200195 0.276523
956.057617 0.254381
954.915039 0.278528
953.771484 0.271677
952.628906 0.272892
951.485352 0.266469
950.340820 0.282957
949.197266 0.257449
948.052734 0.267571
946.908203 0.271330
945.762695 0.272967
944.618164 0.257653
943.472656 0.254632
942.327148 0.254578
941.181641 0.256217
940.035156 0.259550
938.888672 0.271347
937.742188 0.264518
936.595703 0.271654
935.448242 0.269481
934.301758 0.258004
933.154297 0.254142
932.005859 0.267194
930.858398 0.251075
929.709961 0.261586
928.561523 0.277585
927.413086 0.269922
926.263672 0.282956
925.114258 0.282895
923.964844 0.298032
922.815430 0.285306
921.665039 0.304233
920.514648 0.289402
919.364258 0.281748
918.213867 0.286326
917.062500 0.293853
915.911133 0.291261
914.759766 0.298784
913.608398 0.286080
912.456055 0.290230
911.303711 0.294800
910.151367 0.294316
908.999023 0.284570
907.845703 0.288718
906.692383 0.288655
905.539063 0.309628
904.385742 0.301569
903.231445 0.325473
902.077148 0.324562
900.922852 0.326594
899.768555 0.303410
898.613281 0.316369
897.458008 0.311260
896.302734 0.313292
895.146484 0.317423
893.991211 0.306440
892.834961 0.336592
891.678711 0.341974
890.521484 0.342319
889.364258 0.343923
888.207031 0.365234
887.049805 0.379409
885.892578 0.393577
884.734375 0.425759
883.576172 0.414774
882.417969 0.402118
881.258789 0.405381
880.099609 0.393151
878.940430 0.380926
877.781250 0.374984
876.621094 0.382016
875.461914 0.357670
874.301758 0.349227
873.140625 0.328662
871.980469 0.316467
870.819336 0.291320
869.658203 0.301704
868.496094 0.295371
867.334961 0.295725
866.172852 0.286891
865.010742 0.288498
863.847656 0.287600
862.685547 0.285034
861.522461 0.283303
860.359375 0.289498
859.195313 0.298610
858.031250 0.288121
856.867188 0.297229
855.703125 0.290496
854.539063 0.286682
853.374023 0.287453
852.208984 0.285307
851.043945 0.286078
849.877930 0.298089
848.711914 0.291364
847.545898 0.300455
846.379883 0.297061
845.212891 0.304899
844.046875 0.299842
842.879883 0.311002
841.711914 0.339616
840.544922 0.346607
839.376953 0.354426
838.208008 0.385504
837.040039 0.417815
835.871094 0.450111
834.702148 0.482393
833.533203 0.562392
832.364258 0.647750
831.194336 0.732655
830.024414 0.855268
828.854492 0.951702
827.683594 1.000000
826.513672 0.978640
825.342773 0.924552
824.170898 0.829883
823.000000 0.756797
821.828125 0.688297
820.656250 0.594157
819.483398 0.541454
818.311523 0.499534
817.138672 0.446047
815.965820 0.432298
814.791992 0.404905
813.619141 0.386622
812.445313 0.380336
811.270508 0.356279
810.096680 0.356614
808.921875 0.338357
807.747070 0.334565
806.572266 0.351835
805.396484 0.345978
804.221680 0.317833
803.045898 0.319413
801.869141 0.323881
800.693359 0.323397
799.516602 0.330749
798.339844 0.318306
797.162109 0.323595
795.985352 0.321875
794.807617 0.330868
793.628906 0.317612
792.451172 0.326191
791.272461 0.326119
790.093750 0.328517
788.915039 0.344496
787.735352 0.351826
786.556641 0.347223
785.375977 0.338508
784.196289 0.335554
783.015625 0.321090
781.835938 0.317731
780.654297 0.312318
779.473633 0.325396
778.291992 0.289177
777.110352 0.301843
775.928711 0.297260
774.747070 0.292678
773.564453 0.309850
772.381836 0.289676
771.199219 0.295354
770.015625 0.282575
768.832031 0.296863
767.648438 0.293517
766.464844 0.302469
765.280273 0.297894
764.095703 0.312985
762.911133 0.314963
761.725586 0.323492
760.541016 0.372138
759.355469 0.381469
758.168945 0.373608
756.983398 0.385799
755.796875 0.399619
754.610352 0.395032
753.422852 0.383496
752.236328 0.380549
751.048828 0.366569
749.861328 0.370573
748.672852 0.354560
747.485352 0.344679
746.296875 0.345010
745.107422 0.342076
743.918945 0.330572
742.729492 0.326010
741.540039 0.329200
740.349609 0.332389
739.160156 0.322936
737.969727 0.305742
736.779297 0.306489
735.587891 0.305605
734.397461 0.294945
733.206055 0.314429
732.013672 0.295627
730.822266 0.295561
729.629883 0.297529
728.437500 0.296649
727.244141 0.294141
726.051758 0.304650
724.858398 0.291162
723.665039 0.298008
722.470703 0.306477
721.276367 0.301938
720.082031 0.293338
718.887695 0.303833
717.693359 0.299298
716.498047 0.306944
715.302734 0.317023
714.106445 0.301125
712.911133 0.300651
711.714844 0.295715
710.517578 0.304977
709.321289 0.301259
708.124023 0.312136
706.926758 0.306391
705.729492 0.325771
704.531250 0.308279
703.333008 0.298894
702.134766 0.313403
700.936523 0.310904
699.737305 0.308000
698.538086 0.311572
697.338867 0.314334
696.138672 0.323565
694.938477 0.319448
693.738281 0.316546
692.538086 0.318900
691.336914 0.318827
690.135742 0.337339
688.934570 0.331608
687.732422 0.342032
686.531250 0.332265
685.328125 0.344299
684.125977 0.349063
682.923828 0.347774
681.720703 0.340031
680.516602 0.337938
679.313477 0.341490
678.109375 0.347458
676.905273 0.356245
675.701172 0.354553
674.496094 0.361723
673.291992 0.356808
672.085938 0.357935
670.880859 0.378383
669.674805 0.377894
668.468750 0.349644
667.262695 0.366057
666.055664 0.354311
664.849609 0.341364
663.642578 0.329628
662.434570 0.355676
661.227539 0.324255
660.019531 0.339044
658.810547 0.330131
657.602539 0.327647
656.393555 0.323959
655.184570 0.323484
653.975586 0.328626
652.765625 0.336575
651.555664 0.316845
650.345703 0.326397
649.134766 0.319106
647.924805 0.315827
646.712891 0.322567
645.501953 0.308872
644.291016 0.306799
643.079102 0.304727
641.866211 0.323072
640.654297 0.324599
639.441406 0.319723
638.228516 0.317650
637.015625 0.306778
635.801758 0.320303
634.587891 0.321030
633.374023 0.315760
632.160156 0.307296
630.945313 0.305228
629.730469 0.324330
628.514648 0.324655
627.299805 0.327375
626.083984 0.314927
624.868164 0.319643
623.651367 0.321564
622.435547 0.323086
621.218750 0.327398
620.000977 0.337689
618.784180 0.328842
617.566406 0.334744
616.347656 0.347018
615.129883 0.354108
613.911133 0.348849
612.692383 0.328862
611.473633 0.324408
610.253906 0.323537
609.034180 0.331022
607.814453 0.304295
606.594727 0.324904
605.374023 0.319661
604.153320 0.327140
602.931641 0.310770
601.710938 0.311096
600.489258 0.333666
599.267578 0.319292
598.044922 0.307704
596.822266 0.310412
595.599609 0.311531
594.376953 0.306698
593.153320 0.312973
591.929688 0.302590
590.706055 0.309657
589.481445 0.310774
588.257813 0.294454
587.032227 0.293197
585.807617 0.296298
584.582031 0.296229
583.356445 0.283095
582.130859 0.303217
580.905273 0.298002
579.678711 0.300307
578.452148 0.302611
577.224609 0.303727
575.997070 0.311169
574.769531 0.302400
573.541992 0.299959
572.313477 0.304630
571.084961 0.293499
569.856445 0.294616
568.627930 0.292178
567.398438 0.300794
566.168945 0.285333
564.939453 0.303022
563.708984 0.291906
562.478516 0.293021
561.248047 0.303599
560.016602 0.292885
558.785156 0.290058
557.553711 0.292354
556.322266 0.292680
555.089844 0.294187
553.857422 0.293725
552.625000 0.305859
551.391602 0.301065
550.158203 0.314372
548.924805 0.308792
547.690430 0.297315
546.457031 0.303929
545.222656 0.301500
543.987305 0.297892
542.752930 0.298608
541.517578 0.300895
540.281250 0.297290
539.045898 0.288190
537.809570 0.291656
536.573242 0.288840
535.335938 0.299758
534.099609 0.299688
532.861328 0.294127
531.624023 0.296803
530.385742 0.306141
529.148438 0.308420
527.909180 0.319318
526.670898 0.317285
525.431641 0.311336
524.192383 0.313612
522.952148 0.308841
521.712891 0.309160
520.472656 0.317303
519.231445 0.318011
517.991211 0.317154
516.750000 0.312779
515.508789 0.321695
514.266602 0.321619
513.024414 0.320762
511.782227 0.324202
510.540039 0.327640
509.296875 0.319364
508.053711 0.320069
506.810547 0.334433
505.566406 0.332403
504.322266 0.332714
503.078125 0.333026
501.833008 0.327099
500.587891 0.338325
499.342773 0.345649
498.097656 0.352580
496.851563 0.354055
495.605469 0.345793
494.359375 0.364009
493.112305 0.368204
491.865234 0.373565
490.618164 0.370753
489.370117 0.372610
488.123047 0.358523
486.874023 0.372822
485.625977 0.390612
484.376953 0.392462
483.127930 0.395477
481.878906 0.397713
480.628906 0.409268
479.378906 0.420040
478.128906 0.408685
476.877930 0.424885
475.626953 0.409267
474.375977 0.424683
473.125000 0.444744
471.873047 0.445026
470.621094 0.454222
469.368164 0.486273
468.115234 0.480734
466.862305 0.506955
465.609375 0.516126
464.355469 0.545035
463.102539 0.598312
461.847656 0.646921
460.593750 0.704402
459.338867 0.750255
458.083984 0.834362
456.828125 0.895237
455.572266 0.939078
454.316406 0.950058
453.060547 0.925109
451.803711 0.870823
450.546875 0.793012
449.290039 0.713308
448.032227 0.655639
446.774414 0.636577
445.516602 0.591682
444.257813 0.557605
442.999023 0.548990
441.740234 0.531128
440.481445 0.544102
439.221680 0.525479
437.961914 0.521886
436.701172 0.526767
435.441406 0.510856
434.180664 0.516506
432.918945 0.535236
431.658203 0.538954
430.396484 0.556516
429.133789 0.552921
427.872070 0.536643
426.609375 0.551117
425.346680 0.574422
424.083008 0.534718
422.819336 0.557631
421.555664 0.565943
420.291016 0.571565
419.027344 0.570275
417.762695 0.600064
416.497070 0.637509
415.231445 0.628535
413.965820 0.658671
412.700195 0.653528
411.433594 0.674829
410.166992 0.691140
408.900391 0.733488
407.632813 0.714546
406.365234 0.731218
405.097656 0.781562
403.830078 0.795148
402.561523 0.838566
401.291992 0.847159
400.023438 0.881749
398.753906 0.908294
397.484375 0.919921
396.214844 0.914730
394.944336 0.953853
393.673828 0.988756
392.402344 1.006078
391.130859 1.028355
389.859375 1.063213
388.587891 1.060665
387.315430 1.077571
386.042969 1.049088
384.770508 1.096107
383.497070 1.087454
382.223633 1.104336
380.950195 1.104447
379.676758 1.107224
378.402344 1.116473
377.126953 1.101733
375.852539 1.081291
374.577148 1.108423
373.301758 1.096738
372.025391 1.083919
370.749023 1.087455
369.472656 1.060199
368.196289 1.073620
366.918945 1.046000
365.641602 1.038525
364.363281 1.025738
363.085938 1.012957
361.807617 1.005875
360.528320 0.998797
359.249023 0.984893
357.969727 0.965685
356.690430 0.955967
355.410156 0.919337
354.129883 0.919868
352.849609 0.896906
351.568359 0.914490
350.287109 0.886995
349.005859 0.895106
347.723633 0.849838
346.441406 0.851898
345.159180 0.825202
343.875977 0.820837
342.592773 0.811179
341.309570 0.789806
340.026367 0.781295
338.742188 0.742934
337.457031 0.738972
336.172852 0.724813
334.887695 0.700466
333.602539 0.679907
332.316406 0.687286
331.030273 0.685229
329.744141 0.659783
328.457031 0.639631
327.170898 0.623259
325.882813 0.617449
324.595703 0.612773
323.307617 0.614127
322.019531 0.610207
320.730469 0.593109
319.441406 0.608397
318.152344 0.586791
316.863281 0.590031
315.573242 0.578598
314.283203 0.593873
312.992188 0.578684
311.701172 0.566886
310.410156 0.577643
309.119141 0.612817
307.827148 0.582988
306.535156 0.600492
305.242188 0.607475
303.950195 0.620460
302.656250 0.628560
301.363281 0.633655
300.069336 0.619618
298.775391 0.641961
297.480469 0.665042
296.186523 0.654381
294.891602 0.676697
293.595703 0.702000
292.299805 0.729162
291.003906 0.753689
289.708008 0.785690
288.411133 0.804203
287.114258 0.834304
285.816406 0.878977
284.518555 0.950552
283.220703 0.918535
281.922852 0.992305
280.624023 1.028298
279.325195 1.098267
278.025391 1.110687
276.725586 1.139901
275.425781 1.186645
274.125977 1.244187
272.825195 1.288642
271.523438 1.340161
270.222656 1.412908
268.920898 1.479281
267.619141 1.578045
266.316406 1.646949
265.013672 1.668881
263.710938 1.767521
262.408203 1.808771
261.104492 1.896529
259.799805 1.893068
258.496094 2.003082
257.191406 2.013357
255.886719 2.070109
254.581055 2.115678
253.275391 2.140038
251.969727 2.191138
250.663086 2.244813
249.356445 2.267635
248.049805 2.290073
246.742188 2.279464
245.434570 2.292981
244.126953 2.337283
242.818359 2.295884
241.509766 2.333487
240.201172 2.299894
238.891602 2.288926
237.582031 2.262030
236.271484 2.235888
234.961914 2.194947
233.650391 2.143289
232.339844 2.127190
231.028320 2.090377
229.716797 2.056172
228.405273 2.017177
227.092773 2.029228
225.779297 1.994694
224.466797 1.980874
223.153320 1.974080
221.839844 1.932569
220.525391 1.941669
219.210938 1.954457
217.896484 1.893419
216.581055 1.906212
215.265625 1.875837
213.950195 1.858753
212.633789 1.867488
211.317383 1.829036
210.000977 1.799079
208.683594 1.773558
207.366211 1.770886
206.048828 1.725502
204.730469 1.737568
203.412109 1.733066
202.092773 1.689933
200.773438 1.619234
199.454102 1.612560
198.133789 1.650006
196.814453 1.622743
195.493164 1.608722
194.172852 1.588464
192.851563 1.582906
191.529297 1.574413
190.208008 1.557482
188.885742 1.561110
187.562500 1.580511
186.239258 1.589999
184.916016 1.566480
183.592773 1.581465
182.268555 1.616965
180.944336 1.601150
179.619141 1.605490
178.293945 1.613490
176.968750 1.640888
175.643555 1.635697
174.317383 1.674783
172.990234 1.678731
171.664063 1.669875
170.336914 1.681864
169.008789 1.689461
167.680664 1.738712
166.352539 1.795243
165.024414 1.801341
163.695313 1.815834
162.366211 1.892375
161.036133 1.959022
159.706055 2.017242
158.375977 2.078713
157.044922 2.156925
155.713867 2.228168
154.382813 2.327436
153.050781 2.436489
151.718750 2.448224
150.385742 2.549537
149.053711 2.609656
147.719727 2.646448
146.386719 2.677034
145.052734 2.708330
143.717773 2.785069
142.383789 2.821045
141.048828 2.825741
139.712891 2.828253
138.377930 2.841663
137.041016 2.845258
135.705078 2.825975
134.368164 2.837920
133.031250 2.833891
131.693359 2.813174
130.355469 2.829826
129.017578 2.754729
127.678711 2.795312
126.339844 2.815577
125.000977 2.738006
123.661133 2.783268
122.321289 2.757529
120.980469 2.707549
119.639648 2.701025
118.298828 2.755291
116.957031 2.754544
115.615234 2.748734
114.273438 2.783418
112.930664 2.776879
111.587891 2.793830
110.244141 2.795599
108.900391 2.759808
107.556641 2.720425
106.211914 2.587941
104.867188 2.489447
103.522461 2.295410
102.176758 2.097510
100.831055 1.877725
99.484375 1.604353
98.137695 1.349868
