3198.529297 0.005508
3197.824219 0.009179
3197.119141 0.016519
3196.414063 0.001835
3195.708008 0.016514
3195.001953 0.020181
3194.296875 0.009172
3193.590820 0.011004
3192.884766 0.014670
3192.178711 0.022002
3191.472656 0.029331
3190.765625 0.005499
3190.059570 0.012828
3189.352539 0.010994
3188.646484 0.009160
3187.939453 0.031139
3187.232422 -0.001831
3186.525391 0.021974
3185.818359 0.010985
3185.111328 0.025628
3184.404297 0.003661
3183.696289 0.010980
3182.989258 0.023786
3182.281250 0.021953
3181.573242 0.009146
3180.865234 0.025604
3180.157227 0.014628
3179.449219 0.009141
3178.741211 0.012796
3178.033203 0.031071
3177.324219 0.009137
3176.616211 0.000000
3175.907227 0.031056
3175.198242 0.003653
3174.489258 0.029220
3173.780273 0.016433
3173.071289 0.016431
3172.362305 0.034682
3171.652344 0.010950
3170.943359 -0.001825
3170.233398 0.000000
3169.523438 0.023714
3168.814453 0.018239
3168.104492 0.023707
3167.394531 0.023703
3166.683594 0.012761
3165.973633 0.018227
3165.263672 0.001822
3164.552734 0.027332
3163.841797 0.030971
3163.130859 0.009108
3162.420898 0.027318
3161.709961 0.018209
3160.998047 0.005462
3160.287109 0.010922
3159.576172 0.020020
3158.864258 0.012738
3158.153320 0.000000
3157.441406 0.018192
3156.729492 0.020007
3156.017578 0.018186
3155.305664 0.021819
3154.593750 0.010908
3153.880859 0.029083
3153.168945 0.018174
3152.456055 0.007268
3151.744141 0.016351
3151.031250 0.016348
3150.318359 0.007265
3149.605469 0.032686
3148.892578 0.027234
3148.178711 0.016337
3147.465820 0.014520
3146.751953 0.012703
3146.039063 0.016329
3145.325195 0.030839
3144.611328 0.018138
3143.897461 0.009067
3143.183594 0.025384
3142.468750 0.016316
3141.754883 0.007250
3141.041016 0.018123
3140.326172 0.018120
3139.611328 0.023552
3138.896484 0.003623
3138.181641 0.027166
3137.466797 0.000000
3136.751953 0.018105
3136.037109 0.014481
3135.321289 0.010859
3134.605469 0.018096
3133.890625 0.030757
3133.174805 0.003618
3132.458984 0.019895
3131.743164 0.003617
3131.027344 0.016272
3130.310547 0.016270
3129.594727 -0.001807
3128.877930 0.028914
3128.161133 0.018068
3127.445313 0.014452
3126.728516 0.018062
3126.010742 0.016253
3125.293945 0.019862
3124.577148 0.016248
3123.859375 0.014440
3123.142578 0.019852
3122.424805 0.014435
3121.707031 0.007216
3120.989258 0.019842
3120.271484 0.023445
3119.553711 0.009016
3118.835938 0.023437
3118.117188 0.014420
3117.399414 0.021627
3116.680664 0.030633
3115.961914 0.019818
3115.243164 0.028821
3114.524414 0.018010
3113.805664 0.027011
3113.086914 0.023405
3112.367188 0.010801
3111.648438 0.014398
3110.928711 0.012596
3110.208984 0.023389
3109.489258 0.008994
3108.769531 0.010791
3108.049805 0.014386
3107.329102 0.030565
3106.609375 0.017976
3105.888672 0.005392
3105.168945 0.014376
3104.448242 0.017967
3103.727539 0.037725
3103.006836 0.021553
3102.285156 0.030528
3101.564453 0.005386
3100.843750 0.025132
3100.122070 0.021538
3099.400391 0.014356
3098.678711 0.025119
3097.957031 0.007176
3097.235352 0.010762
3096.513672 0.017933
3095.791992 0.034067
3095.069336 0.003585
3094.346680 0.023301
3093.625000 0.030465
3092.902344 0.032252
3092.179688 0.007166
3091.457031 0.017911
3090.733398 0.025072
3090.010742 0.025067
3089.287109 0.028643
3088.564453 0.016109
3087.840820 0.025054
3087.117188 0.023260
3086.393555 0.023256
3085.669922 0.017886
3084.946289 0.023248
3084.221680 0.023244
3083.498047 0.030391
3082.773438 0.014299
3082.048828 0.028593
3081.324219 0.019654
3080.599609 0.008932
3079.875000 0.035723
3079.149414 0.019644
3078.424805 0.023212
3077.699219 0.010711
3076.974609 0.028558
3076.249023 0.017846
3075.523438 0.016058
3074.797852 0.021407
3074.071289 0.017836
3073.345703 0.014267
3072.619141 0.008915
3071.893555 0.014262
3071.166992 0.026736
3070.440430 0.026731
3069.713867 0.014254
3068.987305 0.028503
3068.259766 0.024936
3067.533203 0.014246
3066.805664 0.019585
3066.079102 0.024922
3065.351563 0.017799
3064.624023 0.014236
3063.896484 0.017792
3063.168945 0.021347
3062.440430 0.014229
3061.712891 0.014226
3060.984375 0.023114
3060.255859 0.014221
3059.527344 0.028437
3058.798828 0.024878
3058.070313 0.012437
3057.341797 0.030198
3056.613281 0.012432
3055.883789 0.015982
3055.154297 0.019530
3054.424805 0.030177
3053.695313 0.014198
3052.965820 0.024843
3052.236328 0.023064
3051.506836 0.033703
3050.776367 0.001774
3050.046875 0.019505
3049.316406 0.017729
3048.585938 0.017726
3047.855469 0.012406
3047.125000 0.030123
3046.393555 0.024803
3045.663086 0.024798
3044.931641 0.030107
3044.201172 0.021248
3043.469727 0.012392
3042.738281 0.017700
3042.006836 0.026546
3041.275391 0.028310
3040.542969 0.026536
3039.811523 0.010613
3039.079102 0.014148
3038.346680 0.021217
3037.614258 0.024749
3036.881836 0.008837
3036.149414 0.000000
3035.416992 0.028270
3034.683594 0.022965
3033.951172 0.026493
3033.217773 0.008829
3032.484375 0.026484
3031.750977 0.021183
3031.017578 0.024709
3030.284180 0.047644
3029.549805 0.037050
3028.816406 0.021168
3028.082031 0.015873
3027.347656 0.021160
3026.613281 0.024682
3025.878906 0.017627
3025.144531 0.028198
3024.410156 0.024669
3023.674805 0.024664
3022.939453 0.017614
3022.205078 0.017611
3021.469727 0.017608
3020.734375 0.038730
3019.999023 0.036963
3019.262695 0.031676
3018.527344 0.019354
3017.791016 0.024628
3017.054688 0.017588
3016.318359 0.028136
3015.582031 0.019340
3014.845703 0.038673
3014.109375 0.038666
3013.373047 0.022844
3012.635742 0.019326
3011.898438 0.024592
3011.161133 0.042150
3010.424805 0.015804
3009.686523 0.014045
3008.949219 0.040372
3008.211914 0.022815
3007.473633 0.015792
3006.736328 0.036841
3005.998047 0.029818
3005.259766 0.024552
3004.521484 0.033314
3003.782227 0.022790
3003.043945 0.024538
3002.305664 0.029791
3001.566406 0.042050
3000.827148 0.042042
3000.087891 0.028023
2999.348633 0.049031
2998.609375 0.019259
2997.870117 0.043762
2997.129883 0.038503
2996.389648 0.038496
2995.650391 0.017495
2994.910156 0.048977
2994.169922 0.038475
2993.429688 0.027976
2992.688477 0.034964
2991.948242 0.038453
2991.207031 0.029708
2990.465820 0.034945
2989.725586 0.057648
2988.983398 0.045411
2988.242188 0.026194
2987.500977 0.047140
2986.759766 0.043640
2986.017578 0.052359
2985.275391 0.052349
2984.533203 0.036637
2983.791016 0.048841
2983.048828 0.029648
2982.306641 0.041848
2981.563477 0.047070
2980.821289 0.059263
2980.078125 0.041825
2979.334961 0.066210
2978.591797 0.047035
2977.848633 0.067927
2977.105469 0.047018
2976.361328 0.067902
2975.618164 0.048741
2974.874023 0.067877
2974.129883 0.067864
2973.385742 0.064372
2972.641602 0.059141
2971.897461 0.067826
2971.152344 0.064336
2970.408203 0.073016
2969.663086 0.060835
2968.917969 0.064300
2968.172852 0.078188
2967.427734 0.046904
2966.682617 0.079895
2965.936523 0.092036
2965.191406 0.085074
2964.445313 0.052076
2963.699219 0.085042
2962.953125 0.067674
2962.207031 0.093684
2961.460938 0.098871
2960.713867 0.062433
2959.967773 0.090164
2959.220703 0.100548
2958.473633 0.091863
2957.726563 0.090113
2956.979492 0.091829
2956.232422 0.098741
2955.484375 0.093526
2954.737305 0.086582
2953.989258 0.090028
2953.241211 0.081356
2952.493164 0.121146
2951.745117 0.081326
2950.997070 0.115911
2950.248047 0.095133
2949.500000 0.102032
2948.750977 0.093368
2948.001953 0.112366
2947.252930 0.110616
2946.503906 0.110595
2945.754883 0.103663
2945.004883 0.112281
2944.255859 0.113987
2943.505859 0.105331
2942.755859 0.112217
2942.005859 0.120826
2941.255859 0.103546
2940.504883 0.117330
2939.754883 0.119033
2939.003906 0.081065
2938.252930 0.084498
2937.502930 0.106896
2936.750977 0.089638
2936.000000 0.094791
2935.249023 0.091327
2934.497070 0.067190
2933.746094 0.108517
2932.994141 0.096441
2932.242188 0.080927
2931.490234 0.079190
2930.738281 0.118762
2929.985352 0.086043
2929.233398 0.092909
2928.480469 0.080850
2927.727539 0.073955
2926.974609 0.075660
2926.221680 0.101434
2925.468750 0.075631
2924.715820 0.079054
2923.961914 0.087630
2923.208008 0.077306
2922.455078 0.077291
2921.701172 0.084146
2920.946289 0.087563
2920.192383 0.090980
2919.438477 0.066935
2918.683594 0.066922
2917.928711 0.078919
2917.173828 0.092626
2916.418945 0.097753
2915.664063 0.078873
2914.909180 0.085715
2914.153320 0.094269
2913.398438 0.070260
2912.642578 0.071960
2911.886719 0.083937
2911.130859 0.097622
2910.375000 0.082192
2909.619141 0.101009
2908.862305 0.080449
2908.105469 0.092413
2907.349609 0.075285
2906.592773 0.088956
2905.835938 0.083808
2905.078125 0.064982
2904.321289 0.075227
2903.563477 0.078632
2902.806641 0.073489
2902.048828 0.073475
2901.291016 0.090545
2900.533203 0.078571
2899.774414 0.075141
2899.016602 0.102445
2898.257813 0.075112
2897.500000 0.066564
2896.741211 0.087028
2895.982422 0.066538
2895.222656 0.075054
2894.463867 0.090389
2893.705078 0.066500
2892.945313 0.085239
2892.185547 0.066474
2891.425781 0.064757
2890.666016 0.066448
2889.906250 0.066435
2889.146484 0.078345
2888.385742 0.091952
2887.625000 0.083422
2886.864258 0.074895
2886.103516 0.073179
2885.342773 0.064657
2884.582031 0.064644
2883.821289 0.066333
2883.059570 0.079924
2882.297852 0.085009
2881.536133 0.083293
2880.774414 0.061183
2880.012695 0.061171
2879.250977 0.073051
2878.488281 0.073037
2877.726563 0.059437
2876.963867 0.066217
2876.201172 0.061112
2875.438477 0.076375
2874.674805 0.066179
2873.912109 0.086525
2873.149414 0.088204
2872.385742 0.064444
2871.622070 0.066127
2870.858398 0.064419
2870.094727 0.076271
2869.330078 0.064394
2868.566406 0.077936
2867.801758 0.079615
2867.038086 0.059276
2866.273438 0.066037
2865.508789 0.059253
2864.743164 0.084630
2863.978516 0.057538
2863.212891 0.060910
2862.448242 0.065973
2861.682617 0.072726
2860.916992 0.071020
2860.151367 0.065935
2859.384766 0.065922
2858.619141 0.089569
2857.852539 0.070965
2857.086914 0.070951
2856.320313 0.081071
2855.553711 0.048971
2854.786133 0.055715
2854.019531 0.075960
2853.251953 0.070882
2852.485352 0.072555
2851.717773 0.070854
2850.950195 0.070840
2850.182617 0.077572
2849.414063 0.079243
2848.646484 0.064056
2847.877930 0.079212
2847.110352 0.065716
2846.341797 0.065703
2845.573242 0.079165
2844.803711 0.070729
2844.035156 0.082502
2843.266602 0.060601
2842.497070 0.052174
2841.727539 0.075722
2840.958008 0.068978
2840.188477 0.065600
2839.418945 0.055497
2838.648438 0.060530
2837.878906 0.070605
2837.108398 0.060506
2836.337891 0.075618
2835.567383 0.070563
2834.795898 0.065510
2834.025391 0.072215
2833.254883 0.088991
2832.483398 0.065471
2831.711914 0.055388
2830.940430 0.070480
2830.168945 0.070466
2829.397461 0.062065
2828.625000 0.065407
2827.852539 0.065394
2827.081055 0.072087
2826.308594 0.078777
2825.536133 0.058652
2824.762695 0.065342
2823.990234 0.072030
2823.216797 0.060292
2822.444336 0.055257
2821.670898 0.065291
2820.897461 0.061930
2820.123047 0.065265
2819.349609 0.053540
2818.576172 0.080295
2817.801758 0.035122
2817.027344 0.065214
2816.252930 0.060185
2815.478516 0.060173
2814.704102 0.063504
2813.928711 0.056808
2813.154297 0.056797
2812.378906 0.055115
2811.603516 0.056774
2810.828125 0.056763
2810.052734 0.058421
2809.276367 0.065085
2808.500977 0.060066
2807.724609 0.050045
2806.948242 0.070049
2806.171875 0.056695
2805.395508 0.048348
2804.619141 0.070008
2803.841797 0.064994
2803.064453 0.059983
2802.288086 0.058305
2801.510742 0.061624
2800.733398 0.059947
2799.955078 0.043286
2799.177734 0.056594
2798.399414 0.049926
2797.621094 0.049916
2796.842773 0.049906
2796.064453 0.034927
2795.286133 0.041572
2794.507813 0.064839
2793.728516 0.064826
2792.950195 0.038223
2792.170898 0.061477
2791.391602 0.064788
2790.611328 0.054809
2789.832031 0.044835
2789.052734 0.061428
2788.272461 0.054777
2787.492188 0.039830
2786.711914 0.073006
2785.931641 0.043131
2785.151367 0.053074
2784.370117 0.043114
2783.588867 0.061343
2782.808594 0.054700
2782.027344 0.051375
2781.246094 0.049707
2780.463867 0.064607
2779.682617 0.051344
2778.900391 0.051334
2778.119141 0.054634
2777.336914 0.064555
2776.554688 0.046338
2775.771484 0.054602
2774.989258 0.049628
2774.206055 0.057888
2773.423828 0.051262
2772.640625 0.047945
2771.857422 0.044629
2771.074219 0.059494
2770.290039 0.049568
2769.506836 0.034691
2768.722656 0.054503
2767.938477 0.051190
2767.154297 0.037972
2766.370117 0.051169
2765.585938 0.072612
2764.800781 0.046199
2764.016602 0.059386
2763.231445 0.052777
2762.446289 0.064309
2761.661133 0.056053
2760.875000 0.064283
2760.089844 0.042847
2759.303711 0.044486
2758.518555 0.041182
2757.732422 0.046115
2756.945313 0.041166
2756.159180 0.057620
2755.373047 0.055963
2754.585938 0.039495
2753.798828 0.055940
2753.012695 0.050994
2752.224609 0.055918
2751.437500 0.064128
2750.650391 0.057539
2749.862305 0.062458
2749.074219 0.050943
2748.287109 0.049289
2747.499023 0.042709
2746.709961 0.059123
2745.921875 0.037766
2745.132813 0.060741
2744.344727 0.055805
2743.555664 0.063998
2742.766602 0.039376
2741.977539 0.050850
2741.187500 0.031160
2740.398438 0.044271
2739.608398 0.060655
2738.818359 0.040975
2738.028320 0.049160
2737.238281 0.042596
2736.448242 0.042588
2735.657227 0.052405
2734.866211 0.063856
2734.075195 0.050747
2733.284180 0.055646
2732.493164 0.049090
2731.702148 0.062168
2730.910156 0.050706
2730.119141 0.055601
2729.327148 0.055590
2728.535156 0.049040
2727.743164 0.044127
2726.950195 0.058824
2726.158203 0.042475
2725.365234 0.050633
2724.572266 0.035926
2723.779297 0.047347
2722.986328 0.047338
2722.193359 0.045696
2721.399414 0.050582
2720.606445 0.071779
2719.812500 0.058716
2719.018555 0.052181
2718.224609 0.057062
2717.430664 0.040750
2716.635742 0.048890
2715.840820 0.048880
2715.046875 0.055386
2714.251953 0.037459
2713.456055 0.060248
2712.661133 0.052096
2711.866211 0.050458
2711.070313 0.056957
2710.274414 0.060199
2709.478516 0.053680
2708.682617 0.048790
2707.886719 0.037398
2707.089844 0.063401
2706.293945 0.039008
2705.497070 0.042250
2704.700195 0.056863
2703.903320 0.050354
2703.105469 0.038976
2702.308594 0.050334
2701.510742 0.055193
2700.712891 0.051936
2699.915039 0.063284
2699.117188 0.051915
2698.319336 0.055148
2697.520508 0.055136
2696.722656 0.040533
2695.923828 0.051872
2695.125000 0.050240
2694.326172 0.040508
2693.526367 0.055080
2692.727539 0.035632
2691.927734 0.042102
2691.127930 0.046951
2690.328125 0.063128
2689.528320 0.067969
2688.728516 0.045304
2687.927734 0.050147
2687.126953 0.050137
2686.326172 0.058211
2685.525391 0.038800
2684.724609 0.056571
2683.923828 0.053327
2683.122070 0.054932
2682.321289 0.058151
2681.519531 0.062984
2680.717773 0.045210
2679.915039 0.059729
2679.113281 0.054875
2678.310547 0.046795
2677.508789 0.048399
2676.706055 0.058067
2675.903320 0.040316
2675.099609 0.045144
2674.296875 0.049971
2673.493164 0.054795
2672.690430 0.037060
2671.886719 0.046718
2671.083008 0.054761
2670.278320 0.057970
2669.474609 0.062788
2668.669922 0.032192
2667.865234 0.051497
2667.060547 0.041833
2666.255859 0.054693
2665.451172 0.036990
2664.646484 0.049846
2663.840820 0.059481
2663.035156 0.035360
2662.229492 0.062670
2661.423828 0.049804
2660.618164 0.049794
2659.811523 0.049784
2659.004883 0.044956
2658.199219 0.072236
2657.391602 0.044938
2656.584961 0.054556
2655.778320 0.049732
2655.033203 0.057868
2654.970703 0.048117
2654.227539 0.072334
2654.164063 0.043296
2653.421875 0.045001
2653.356445 0.060923
2652.616211 0.054635
2652.548828 0.062513
2651.810547 0.046593
2651.740234 0.067308
2651.004883 0.067469
2650.932617 0.048067
2650.198242 0.053002
2650.124023 0.038445
2649.392578 0.046570
2649.316406 0.049648
2648.585938 0.061013
2648.507813 0.054441
2647.779297 0.061003
2647.699219 0.057632
2646.972656 0.062599
2646.889648 0.052818
2646.166016 0.051355
2646.081055 0.038405
2645.359375 0.062578
2645.271484 0.060795
2644.552734 0.062568
2644.461914 0.054384
2643.745117 0.036893
2643.652344 0.057571
2642.938477 0.049717
2642.842773 0.059158
2642.130859 0.056123
2642.033203 0.049554
2641.323242 0.056114
2641.222656 0.049544
2640.515625 0.062517
2640.413086 0.049533
2639.708008 0.070520
2639.602539 0.046328
2638.899414 0.057689
2638.791992 0.060693
2638.091797 0.038453
2637.981445 0.059083
2637.283203 0.049660
2637.169922 0.054281
2636.475586 0.057661
2636.359375 0.062251
2635.666992 0.046441
2635.547852 0.060642
2634.858398 0.056041
2634.736328 0.062224
2634.049805 0.054430
2633.924805 0.055831
2633.241211 0.062425
2633.113281 0.057414
2632.431641 0.067215
2632.300781 0.051023
2631.623047 0.057604
2631.489258 0.044636
2630.813477 0.047995
2630.676758 0.060565
2630.003906 0.057585
2629.864258 0.043024
2629.194336 0.055976
2629.051758 0.058946
2628.384766 0.054367
2628.238281 0.081233
2627.575195 0.060754
2627.425781 0.066883
2626.765625 0.039963
2626.612305 0.058908
2625.955078 0.047947
2625.798828 0.068447
2625.145508 0.049537
2624.985352 0.057292
2624.334961 0.057518
2624.171875 0.062053
2623.524414 0.051118
2623.358398 0.052495
2622.713867 0.052707
2622.543945 0.055665
2621.903320 0.055892
2621.729492 0.071554
2621.092773 0.073446
2620.916016 0.077898
2620.281250 0.068644
2620.100586 0.052451
2619.469727 0.071825
2619.286133 0.060385
2618.659180 0.070217
2618.471680 0.054017
2617.847656 0.062228
2617.656250 0.057182
2617.036133 0.054241
2616.840820 0.060346
2616.224609 0.062207
2616.025391 0.060334
2615.412109 0.079739
2615.209961 0.055559
2614.600586 0.062186
2614.394531 0.049198
2613.788086 0.086089
2613.578125 0.047601
2612.976563 0.041443
2612.762695 0.057109
2612.164063 0.062154
2611.946289 0.057097
2611.351563 0.066924
2611.129883 0.061842
2610.539063 0.055761
2610.312500 0.052317
2609.726563 0.062123
2609.496094 0.058646
2608.913086 0.076446
2608.678711 0.066556
2608.100586 0.057325
2607.862305 0.041193
2607.287109 0.068460
2607.044922 0.060192
2606.473633 0.070040
2606.227539 0.071265
2605.660156 0.070028
2605.409180 0.061749
2604.846680 0.049330
2604.591797 0.061736
2604.033203 0.042957
2603.773438 0.060140
2603.218750 0.042950
2602.955078 0.064874
2602.405273 0.069981
2602.136719 0.058533
2601.590820 0.052476
2601.318359 0.055357
2600.776367 0.068367
2600.500000 0.061670
2599.961914 0.057228
2599.680664 0.056914
2599.147461 0.079469
2598.861328 0.061643
2598.333008 0.046084
2598.042969 0.061630
2597.518555 0.066731
2597.222656 0.075836
2596.703125 0.061954
2596.403320 0.053706
2595.888672 0.055590
2595.583984 0.061590
2595.073242 0.073049
2594.763672 0.066314
2594.257813 0.061922
2593.943359 0.061564
2593.442383 0.061912
2593.123047 0.059972
2592.625977 0.041267
2592.302734 0.061537
2591.810547 0.061890
2591.482422 0.055214
2590.994141 0.052360
2590.661133 0.047316
2590.178711 0.060283
2589.839844 0.048883
2589.362305 0.061859
2589.018555 0.058331
2588.545898 0.057090
2588.197266 0.067776
2587.729492 0.060252
2587.375977 0.066185
2586.913086 0.066582
2586.554688 0.059869
2586.095703 0.074496
2585.732422 0.040954
2585.279297 0.045958
2584.910156 0.056693
2584.461914 0.061795
2584.087891 0.066128
2583.644531 0.066536
2583.265625 0.070836
2582.827148 0.047518
2582.443359 0.053509
2582.009766 0.055428
2581.620117 0.058218
2581.192383 0.066502
2580.796875 0.066071
2580.374023 0.052242
2579.973633 0.047183
2579.556641 0.061730
2579.150391 0.051890
2578.738281 0.052224
2578.327148 0.058167
2577.919922 0.061709
2577.503906 0.072300
2577.101563 0.060116
2576.679688 0.065999
2576.283203 0.055360
2575.855469 0.045561
2575.464844 0.061677
2575.031250 0.059687
2574.645508 0.060085
2574.207031 0.061245
2573.827148 0.053751
2573.381836 0.058091
2573.007813 0.056903
2572.557617 0.061218
2572.188477 0.071116
2571.732422 0.067482
2571.369141 0.071103
2570.907227 0.043932
2570.549805 0.060032
2570.082031 0.072159
2569.730469 0.067919
2569.256836 0.061165
2568.910156 0.071066
2568.430664 0.083103
2568.090820 0.067896
2567.605469 0.050164
2567.270508 0.085249
2566.779297 0.065826
2566.450195 0.067872
2565.953125 0.073647
2565.629883 0.055235
2565.125977 0.067364
2564.809570 0.085204
2564.299805 0.061084
2563.989258 0.053638
2563.472656 0.061071
2563.167969 0.056783
2562.646484 0.053230
2562.346680 0.069389
2561.819336 0.061044
2561.526367 0.052033
2560.992188 0.059466
2560.705078 0.061482
2560.164063 0.061018
2559.883789 0.074081
2559.336914 0.059440
2559.061523 0.075644
2558.508789 0.057863
2558.240234 0.066177
2557.680664 0.068795
2557.417969 0.069316
2556.852539 0.056274
2556.596680 0.070879
2556.024414 0.059388
2555.774414 0.061417
2555.195313 0.067187
2554.952148 0.061406
2554.367188 0.068734
2554.129883 0.059821
2553.538086 0.056225
2553.307617 0.073976
2552.708984 0.070266
2552.484375 0.070816
2551.878906 0.068689
2551.662109 0.056643
2551.049805 0.057749
2550.838867 0.088095
2550.219727 0.059296
2550.015625 0.077069
2549.390625 0.053043
2549.192383 0.070765
2548.560547 0.071748
2548.369141 0.075470
2547.730469 0.068613
2547.544922 0.055020
2546.899414 0.048331
2546.721680 0.061297
2546.069336 0.073259
2545.897461 0.075429
2545.238281 0.067009
2545.074219 0.061275
2544.407227 0.060763
2544.250000 0.065977
2543.576172 0.080999
2543.425781 0.075389
2542.745117 0.084096
2542.600586 0.067524
2541.913086 0.074735
2541.776367 0.072222
2541.082031 0.065379
2540.951172 0.059651
2540.250000 0.071589
2540.126953 0.067488
2539.417969 0.070017
2539.301758 0.084737
2538.585938 0.056002
2538.476563 0.073739
2537.752930 0.060655
2537.651367 0.073726
2536.920898 0.080855
2536.826172 0.076849
2536.087891 0.079283
2536.000000 0.070563
2535.254883 0.060614
2535.174805 0.079957
2534.421875 0.085463
2534.348633 0.076808
2533.587891 0.049713
2533.522461 0.075227
2532.754883 0.076106
2532.696289 0.070513
2531.920898 0.074536
2531.870117 0.089300
2531.086914 0.076072
2531.042969 0.067354
2530.252930 0.048116
2530.216797 0.081437
2529.418945 0.079141
2529.389648 0.067330
2528.583984 0.077572
2528.562500 0.086104
2527.749023 0.079106
2527.735352 0.057914
2526.914063 0.071334
2526.908203 0.068859
2526.081055 0.068218
2526.079102 0.075105
2525.253906 0.066652
2525.244141 0.067269
2524.425781 0.069737
2524.409180 0.065693
2523.597656 0.069721
2523.573242 0.073500
2522.769531 0.090686
2522.737305 0.058863
2521.941406 0.076600
2521.901367 0.066593
2521.113281 0.053142
2521.065430 0.072771
2520.285156 0.073447
2520.228516 0.089782
2519.456055 0.067184
2519.392578 0.057262
2518.627930 0.081231
2518.555664 0.060344
2517.798828 0.060912
2517.718750 0.074252
2516.969727 0.078078
2516.881836 0.081969
2516.140625 0.070258
2516.043945 0.060303
2515.311523 0.095221
2515.207031 0.072656
2514.481445 0.085839
2514.369141 0.092732
2513.651367 0.088945
2513.531250 0.084985
2512.822266 0.056165
2512.693359 0.083421
2511.992188 0.081113
2511.855469 0.092669
2511.162109 0.074860
2511.016602 0.094192
2510.332031 0.071727
2510.177734 0.075646
2509.500977 0.096658
2509.338867 0.077172
2508.670898 0.073260
2508.500000 0.092585
2507.839844 0.087272
2507.661133 0.083308
2507.008789 0.070117
2506.821289 0.077120
2506.177734 0.068546
2505.982422 0.084812
2505.346680 0.079437
2505.142578 0.075543
2504.515625 0.090323
2504.302734 0.080150
2503.683594 0.093421
2503.461914 0.075509
2502.852539 0.077836
2502.622070 0.072410
2502.020508 0.070040
2501.781250 0.093958
2501.188477 0.079364
2500.940430 0.083157
2500.356445 0.071570
2500.099609 0.073900
2499.524414 0.082446
2499.258789 0.087737
2498.691406 0.087096
2498.416992 0.086178
2497.859375 0.074640
2497.576172 0.095390
2497.026367 0.099502
2496.734375 0.095368
2496.193359 0.082385
2495.892578 0.095346
2495.360352 0.094803
2495.050781 0.070724
2494.527344 0.083909
2494.208008 0.083005
2493.694336 0.107197
2493.365234 0.084523
2492.860352 0.069898
2492.523438 0.099868
2492.027344 0.093180
2491.680664 0.109062
2491.193359 0.090057
2490.836914 0.099823
2490.359375 0.107118
2489.994141 0.092123
2489.525391 0.100889
2489.150391 0.098242
2488.691406 0.100870
2488.306641 0.107427
2487.856445 0.080681
2487.462891 0.064442
2487.022461 0.094628
2486.619141 0.095106
2486.187500 0.103916
2485.775391 0.090484
2485.352539 0.097694
2484.930664 0.093529
2484.517578 0.086823
2484.085938 0.098107
2483.682617 0.089907
2483.241211 0.107279
2482.846680 0.111589
2482.396484 0.087336
2482.011719 0.074379
2481.550781 0.099571
2481.175781 0.106899
2480.706055 0.071981
2480.339844 0.091390
2479.860352 0.096462
2479.503906 0.094470
2479.014648 0.102563
2478.667969 0.092904
2478.168945 0.107131
2477.832031 0.100627
2477.322266 0.104046
2476.995117 0.085130
2476.476563 0.091784
2476.158203 0.091305
2475.629883 0.105527
2475.322266 0.105213
2474.783203 0.110090
2474.485352 0.100552
2473.936523 0.093249
2473.647461 0.098987
2473.088867 0.105454
2472.810547 0.098968
2472.242188 0.079454
2471.973633 0.086581
2471.394531 0.085546
2471.135742 0.091202
2470.546875 0.085526
2470.297852 0.100458
2469.698242 0.080926
2469.459961 0.095804
2468.850586 0.097699
2468.622070 0.088061
2468.001953 0.085467
2467.784180 0.089590
2467.153320 0.103757
2466.946289 0.089573
2466.304688 0.082376
2466.107422 0.094188
2465.456055 0.080832
2465.268555 0.080277
2464.607422 0.105209
2464.429688 0.089522
2463.757813 0.100611
2463.590820 0.069444
2462.908203 0.094492
2462.751953 0.100289
2462.058594 0.094470
2461.913086 0.095643
2461.208984 0.094447
2461.073242 0.087913
2460.358398 0.089856
2460.233398 0.092523
2459.508789 0.095926
2459.394531 0.090963
2458.658203 0.071547
2458.554688 0.103278
2457.807617 0.079140
2457.713867 0.086306
2456.956055 0.094337
2456.874023 0.100157
2456.105469 0.069976
2456.033203 0.103220
2455.253906 0.094293
2455.193359 0.095499
2454.402344 0.094271
2454.352539 0.070841
2453.550781 0.072967
2453.511719 0.086224
2452.699219 0.080548
2452.670898 0.089287
2451.846680 0.091165
2451.829102 0.084653
2450.995117 0.086587
2450.988281 0.089253
2450.146484 0.097197
2450.142578 0.084621
2449.304688 0.059216
2449.290039 0.083067
2448.462891 0.074381
2448.436523 0.098431
2447.621094 0.087648
2447.583984 0.074364
2446.779297 0.086094
2446.730469 0.094071
2445.937500 0.067633
2445.876953 0.080396
2445.094727 0.084525
2445.023438 0.069762
2444.251953 0.075290
2444.169922 0.054583
2443.409180 0.090638
2443.315430 0.077308
2442.566406 0.076797
2442.460938 0.078805
2441.723633 0.082925
2441.606445 0.081816
2440.879883 0.079839
2440.751953 0.078767
2440.037109 0.082894
2439.897461 0.080263
2439.193359 0.076739
2439.041992 0.075702
2438.349609 0.085931
2438.186523 0.063575
2437.505859 0.088983
2437.331055 0.080206
2436.662109 0.078229
2436.475586 0.065057
2435.817383 0.072080
2435.619141 0.074117
2434.973633 0.099666
2434.763672 0.077124
2434.128906 0.082783
2433.907227 0.071058
2433.284180 0.072038
2433.050781 0.071041
2432.439453 0.065895
2432.194336 0.093692
2431.593750 0.070479
2431.336914 0.077051
2430.749023 0.070465
2430.479492 0.066459
2429.903320 0.071984
2429.622070 0.077014
2429.058594 0.071970
2428.764648 0.078505
2428.212891 0.094921
2427.907227 0.072449
2427.367188 0.067350
2427.048828 0.063377
2426.520508 0.085702
2426.191406 0.084483
2425.674805 0.076505
2425.333008 0.067872
2424.828125 0.073431
2424.473633 0.075395
2423.982422 0.078006
2423.615234 0.058794
2423.135742 0.073403
2422.755859 0.072344
2422.289063 0.082562
2421.897461 0.087395
2421.441406 0.093247
2421.038086 0.079842
2420.594727 0.070304
2420.177734 0.058737
2419.747070 0.079459
2419.318359 0.073780
2418.900391 0.076388
2418.458008 0.079784
2418.052734 0.064154
2417.597656 0.070735
2417.205078 0.059560
2416.737305 0.058681
2416.356445 0.065656
2415.876953 0.069196
2415.508789 0.071750
2415.015625 0.078203
2414.660156 0.082420
2414.155273 0.070666
2413.812500 0.054936
2413.293945 0.076662
2412.963867 0.086966
2412.115234 0.080847
2411.266602 0.051854
2410.416992 0.074717
2409.568359 0.067080
2408.718750 0.064018
2407.869141 0.100581
2407.019531 0.059423
2406.169922 0.083785
2405.319336 0.089861
2404.469727 0.079185
2403.619141 0.089827
2402.768555 0.082198
2401.917969 0.079139
2401.066406 0.069994
2400.215820 0.077587
2399.364258 0.086698
2398.513672 0.059308
2397.662109 0.057776
2396.810547 0.066886
2395.958008 0.079032
2395.106445 0.069899
2394.253906 0.069886
2393.402344 0.059239
2392.549805 0.082008
2391.697266 0.078955
2390.843750 0.081976
2389.991211 0.072853
2389.137695 0.065252
2388.284180 0.074342
2387.430664 0.081912
2386.577148 0.086446
2385.723633 0.069750
2384.869141 0.074285
2384.015625 0.089427
2383.161133 0.068194
2382.306641 0.092423
2381.452148 0.071197
2380.597656 0.089358
2379.742188 0.074198
2378.886719 0.080239
2378.032227 0.090819
2377.176758 0.059021
2376.320313 0.075653
2375.464844 0.071100
2374.609375 0.069574
2373.752930 0.074097
2372.896484 0.068035
2372.040039 0.095230
2371.183594 0.068008
2370.326172 0.063462
2369.469727 0.069492
2368.612305 0.072500
2367.754883 0.081546
2366.897461 0.063412
2366.040039 0.063400
2365.182617 0.070934
2364.324219 0.066393
2363.465820 0.054311
2362.607422 0.073909
2361.749023 0.073894
2360.890625 0.078403
2360.031250 0.087432
2359.172852 0.058779
2358.313477 0.085891
2357.454102 0.076835
2356.594727 0.078326
2355.735352 0.087347
2354.875000 0.073778
2354.015625 0.076775
2353.155273 0.066224
2352.294922 0.082764
2351.434570 0.088765
2350.573242 0.073706
2349.712891 0.081211
2348.851563 0.084202
2347.990234 0.081179
2347.128906 0.079660
2346.267578 0.103688
2345.406250 0.072116
2344.543945 0.085621
2343.681641 0.076593
2342.819336 0.078080
2341.957031 0.070558
2341.094727 0.085554
2340.232422 0.073532
2339.369141 0.070516
2338.505859 0.088503
2337.642578 0.058490
2336.779297 0.074973
2335.916016 0.079456
2335.051758 0.085435
2334.188477 0.073430
2333.324219 0.062927
2332.459961 0.076397
2331.595703 0.085368
2330.730469 0.088346
2329.866211 0.080843
2329.000977 0.082323
2328.135742 0.095776
2327.270508 0.073314
2326.405273 0.088258
2325.540039 0.086745
2324.673828 0.089718
2323.807617 0.080730
2322.941406 0.097156
2322.075195 0.079204
2321.208984 0.076200
2320.341797 0.098592
2319.475586 0.088118
2318.608398 0.086607
2317.741211 0.071661
2316.874023 0.085080
2316.005859 0.098494
2315.138672 0.071618
2314.270508 0.090996
2313.402344 0.083521
2312.534180 0.067102
2311.666016 0.074543
2310.797852 0.078999
2309.928711 0.084945
2309.059570 0.075988
2308.190430 0.086400
2307.321289 0.072979
2306.452148 0.083388
2305.582031 0.090815
2304.712891 0.080378
2303.842773 0.080361
2302.972656 0.080345
2302.102539 0.066941
2301.231445 0.102623
2300.361328 0.093680
2299.490234 0.089201
2298.619141 0.095129
2297.748047 0.087679
2296.876953 0.096577
2296.004883 0.087644
2295.133789 0.072775
2294.261719 0.074245
2293.389648 0.102438
2292.517578 0.080153
2291.645508 0.077168
2290.772461 0.083088
2289.899414 0.097905
2289.027344 0.088987
2288.153320 0.069692
2287.280273 0.090434
2286.407227 0.088933
2285.533203 0.081506
2284.660156 0.087416
2283.786133 0.087398
2282.911133 0.085900
2282.037109 0.093286
2281.163086 0.091787
2280.288086 0.082888
2279.413086 0.091750
2278.538086 0.081375
2277.663086 0.090234
2276.787109 0.082821
2275.912109 0.085762
2275.036133 0.093136
2274.160156 0.085727
2273.284180 0.082754
2272.408203 0.082738
2271.531250 0.085675
2270.655273 0.088612
2269.778320 0.081211
2268.901367 0.088576
2268.024414 0.088558
2267.146484 0.078210
2266.269531 0.081145
2265.391602 0.081129
2264.513672 0.082587
2263.635742 0.086994
2262.757813 0.101718
2261.878906 0.091380
2261.000000 0.086941
2260.122070 0.083977
2259.243164 0.091325
2258.363281 0.070689
2257.484375 0.107484
2256.604492 0.086853
2255.725586 0.072118
2254.845703 0.108890
2253.965820 0.094156
2253.084961 0.076487
2252.205078 0.097059
2251.324219 0.082337
2250.443359 0.086730
2249.562500 0.089652
2248.681641 0.082287
2247.800781 0.101368
2246.918945 0.089597
2246.037109 0.098390
2245.155273 0.092497
2244.273438 0.092478
2243.391602 0.099798
2242.509766 0.092441
2241.626953 0.083620
2240.744141 0.098270
2239.861328 0.083586
2238.978516 0.112891
2238.094727 0.095278
2237.211914 0.098190
2236.328125 0.089379
2235.444336 0.096685
2234.560547 0.086413
2233.675781 0.096646
2232.791992 0.090770
2231.907227 0.089288
2231.022461 0.111221
2230.137695 0.103882
2229.252930 0.086307
2228.368164 0.084827
2227.482422 0.092121
2226.596680 0.084792
2225.710938 0.090622
2224.825195 0.089142
2223.938477 0.094968
2223.052734 0.089105
2222.166016 0.112454
2221.279297 0.086149
2220.392578 0.100729
2219.505859 0.091951
2218.618164 0.091933
2217.731445 0.087537
2216.843750 0.090436
2215.956055 0.102085
2215.068359 0.103522
2214.179688 0.096212
2213.291016 0.085990
2212.403320 0.091801
2211.514648 0.099066
2210.625977 0.088850
2209.736328 0.084463
2208.847656 0.104829
2207.958008 0.113541
2207.068359 0.097509
2206.178711 0.109130
2205.289063 0.091650
2204.398438 0.088722
2203.507813 0.091612
2202.618164 0.100317
2201.727539 0.107564
2200.835938 0.098822
2199.945313 0.092990
2199.053711 0.101687
2198.162109 0.095856
2197.270508 0.098741
2196.378906 0.087106
2195.487305 0.087088
2194.594727 0.079814
2193.703125 0.103012
2192.810547 0.102991
2191.917969 0.091367
2191.024414 0.085548
2190.131836 0.102927
2189.238281 0.085513
2188.344727 0.105783
2187.451172 0.094170
2186.557617 0.108636
2185.664063 0.117302
2184.769531 0.073842
2183.875000 0.102778
2182.980469 0.083942
2182.085938 0.108523
2181.191406 0.114288
2180.295898 0.101247
2179.400391 0.095441
2178.504883 0.091084
2177.609375 0.099738
2176.713867 0.114169
2175.817383 0.095362
2174.921875 0.088120
2174.025391 0.108321
2173.128906 0.098191
2172.231445 0.102502
2171.334961 0.099594
2170.437500 0.096687
2169.540039 0.106766
2168.642578 0.102416
2167.745117 0.100953
2166.847656 0.092281
2165.949219 0.111002
2165.050781 0.090801
2164.152344 0.106633
2163.253906 0.099407
2162.354492 0.099387
2161.456055 0.096486
2160.556641 0.097906
2159.657227 0.089248
2158.757813 0.096426
2157.858398 0.115111
2156.958008 0.079122
2156.057617 0.090612
2155.157227 0.112163
2154.256836 0.077635
2153.356445 0.099180
2152.456055 0.103470
2151.554688 0.091954
2150.653320 0.096245
2149.751953 0.097661
2148.850586 0.101948
2147.948242 0.100491
2147.045898 0.120564
2146.144531 0.084664
2145.242188 0.093255
2144.338867 0.117620
2143.436523 0.101820
2142.533203 0.101799
2141.629883 0.106078
2140.726563 0.131853
2139.823242 0.107466
2138.919922 0.121770
2138.015625 0.098828
2137.111328 0.111695
2136.207031 0.113103
2135.302734 0.128825
2134.398438 0.114487
2133.493164 0.128771
2132.588867 0.107286
2131.683594 0.097252
2130.778320 0.135839
2129.872070 0.121515
2128.966797 0.115772
2128.060547 0.138611
2127.154297 0.127153
2126.248047 0.128554
2125.341797 0.147092
2124.434570 0.144206
2123.527344 0.142748
2122.620117 0.138436
2121.712891 0.158383
2120.805664 0.162630
2119.897461 0.139775
2118.990234 0.146876
2118.082031 0.136865
2117.173828 0.133985
2116.265625 0.141082
2115.356445 0.115407
2114.447266 0.111109
2113.539063 0.118206
2112.628906 0.136692
2111.719727 0.122427
2110.810547 0.130941
2109.900391 0.115260
2108.990234 0.119504
2108.080078 0.125168
2107.169922 0.122298
2106.258789 0.108054
2105.348633 0.109453
2104.437500 0.109429
2103.526367 0.107985
2102.615234 0.105121
2101.703125 0.120722
2100.791992 0.102237
2099.879883 0.114992
2098.967773 0.133419
2098.055664 0.103591
2097.142578 0.123432
2096.230469 0.117732
2095.317383 0.127634
2094.404297 0.116264
2093.490234 0.113404
2092.577148 0.096373
2091.663086 0.119023
2090.750000 0.128915
2089.835938 0.106226
2088.920898 0.104787
2088.006836 0.128832
2087.091797 0.113235
2086.177734 0.111796
2085.262695 0.132995
2084.346680 0.115992
2083.431641 0.124452
2082.515625 0.113114
2081.600586 0.118745
2080.684570 0.120133
2079.767578 0.117281
2078.851563 0.117256
2077.934570 0.117231
2077.017578 0.115794
2076.100586 0.097416
2075.183594 0.118567
2074.266602 0.107252
2073.348633 0.136859
2072.430664 0.097332
2071.512695 0.108594
2070.594727 0.129721
2069.676758 0.093041
2068.757813 0.132484
2067.838867 0.118365
2066.919922 0.112704
2066.000977 0.111271
2065.082031 0.129554
2064.162109 0.135158
2063.242188 0.122460
2062.322266 0.116805
2061.402344 0.123815
2060.481445 0.082994
2059.561523 0.101260
2058.640625 0.104050
2057.719727 0.119491
2056.798828 0.122276
2055.876953 0.136302
2054.956055 0.119414
2054.034180 0.112365
2053.112305 0.127788
2052.189453 0.106701
2051.267578 0.119311
2050.344727 0.115075
2049.421875 0.120663
2048.499023 0.109415
2047.576172 0.126220
2046.652344 0.124791
2045.729492 0.140184
2044.805664 0.128942
2043.881836 0.135920
2042.957031 0.133089
2042.033203 0.123256
2041.108398 0.127430
2040.183594 0.128802
2039.258789 0.124575
2038.333984 0.096560
2037.408203 0.167894
2036.483398 0.130090
2035.557617 0.102091
2034.630859 0.111857
2033.705078 0.118822
2032.778320 0.122989
2031.852539 0.121565
2030.925781 0.109065
2030.818359 0.143890
2029.999023 0.111862
2029.892578 0.134082
2029.071289 0.118833
2028.965820 0.136846
2028.144531 0.116017
2028.040039 0.131232
2027.216797 0.125780
2027.113281 0.118641
2026.289063 0.111786
2026.186523 0.117220
2025.361328 0.131326
2025.260742 0.118590
2024.432617 0.121526
2024.333008 0.128328
2023.503906 0.142454
2023.406250 0.131089
2022.576172 0.110314
2022.479492 0.136638
2021.647461 0.124256
2021.551758 0.132426
2020.717773 0.134006
2020.624023 0.143546
2019.789063 0.140962
2019.696289 0.147695
2018.859375 0.115820
2018.768555 0.115623
2017.929688 0.132543
2017.840820 0.129525
2017.000000 0.131125
2016.913086 0.143421
2016.070313 0.115761
2015.984375 0.123900
2015.139648 0.118530
2015.055664 0.143359
2014.209961 0.138029
2014.126953 0.140544
2013.279297 0.122671
2013.198242 0.143296
2012.348633 0.114288
2012.269531 0.134919
2011.416992 0.140745
2011.340820 0.130718
2010.486328 0.119821
2010.411133 0.132080
2009.554688 0.130945
2009.482422 0.127881
2008.623047 0.119780
2008.552734 0.143139
2007.691406 0.121152
2007.623047 0.129214
2006.759766 0.142016
2006.692383 0.126408
2005.827148 0.126679
2005.762695 0.126380
2004.894531 0.133616
2004.833008 0.130518
2003.961914 0.134984
2003.902344 0.123548
2003.029297 0.146092
2002.971680 0.115194
2002.096680 0.129373
2002.041016 0.130432
2001.163086 0.133523
2001.110352 0.131790
2000.229492 0.127938
2000.178711 0.117892
1999.295898 0.123744
1999.248047 0.152532
1998.362305 0.140404
1998.316406 0.124772
1997.427734 0.123701
1997.384766 0.128902
1996.494141 0.130628
1996.453125 0.142731
1995.559570 0.136163
1995.521484 0.152398
1994.625000 0.138917
1994.589844 0.149594
1993.689453 0.125004
1993.657227 0.150946
1992.754883 0.122205
1992.724609 0.125991
1991.819336 0.119406
1991.792969 0.132885
1990.883789 0.122162
1990.860352 0.142543
1989.948242 0.133244
1989.926758 0.139744
1989.012695 0.141547
1988.994141 0.142480
1988.076172 0.135972
1988.061523 0.152130
1987.139648 0.135948
1987.127930 0.142417
1986.203125 0.140086
1986.194336 0.111973
1985.266602 0.141448
1985.260742 0.111948
1984.330078 0.141423
1984.327148 0.151995
1983.392578 0.156647
1983.392578 0.150580
1982.458984 0.134443
1982.455078 0.165739
1981.524414 0.133033
1981.517578 0.142228
1980.589844 0.160720
1980.580078 0.168427
1979.655273 0.141298
1979.641602 0.157348
1978.720703 0.138503
1978.703125 0.122815
1977.786133 0.134324
1977.765625 0.151760
1976.850586 0.135685
1976.826172 0.142071
1975.915039 0.137045
1975.887695 0.147555
1974.979492 0.141173
1974.948242 0.139250
1974.043945 0.153602
1974.009766 0.148868
1973.108398 0.110685
1973.070313 0.141945
1972.172852 0.128648
1972.130859 0.151558
1971.236328 0.128625
1971.190430 0.151524
1970.299805 0.145196
1970.250000 0.152867
1969.363281 0.128579
1969.310547 0.151457
1968.426758 0.145144
1968.370117 0.154176
1967.490234 0.145118
1967.428711 0.141755
1966.553711 0.147856
1966.488281 0.134844
1965.616211 0.164409
1965.546875 0.158200
1964.678711 0.145041
1964.605469 0.151288
1963.741211 0.139490
1963.664063 0.156754
1962.803711 0.147751
1962.722656 0.147096
1961.866211 0.157388
1961.780273 0.156684
1960.928711 0.131133
1960.837891 0.152527
1959.990234 0.144911
1959.895508 0.146998
1959.051758 0.147645
1958.953125 0.156579
1958.113281 0.144859
1958.010742 0.152425
1957.174805 0.140695
1957.067383 0.137289
1956.236328 0.146186
1956.124023 0.141376
1955.296875 0.154433
1955.180664 0.131738
1954.357422 0.146133
1954.237305 0.153660
1953.418945 0.154377
1953.292969 0.176944
1952.479492 0.125409
1952.349609 0.167305
1951.539063 0.146054
1951.405273 0.154928
1950.599609 0.140517
1950.460938 0.160376
1949.660156 0.155643
1949.515625 0.153488
1948.719727 0.136335
1948.571289 0.141123
1947.779297 0.158340
1947.625977 0.152050
1946.838867 0.169325
1946.680664 0.167080
1945.898438 0.154154
1945.735352 0.150612
1944.957031 0.152750
1944.789063 0.160160
1944.016602 0.151346
1943.842773 0.164230
1943.075195 0.148567
1942.896484 0.157352
1942.133789 0.159543
1941.950195 0.151844
1941.192383 0.163640
1941.003906 0.161384
1940.250977 0.158110
1940.056641 0.149041
1939.308594 0.125091
1939.110352 0.147641
1938.366211 0.160801
1938.163086 0.136673
1937.424805 0.153902
1937.215820 0.148940
1936.482422 0.151126
1936.267578 0.153005
1935.539063 0.152472
1935.319336 0.161166
1934.596680 0.152444
1934.372070 0.161129
1933.654297 0.162028
1933.422852 0.156997
1932.710938 0.151015
1932.474609 0.163786
1931.767578 0.179812
1931.526367 0.155561
1930.824219 0.167428
1930.577148 0.151433
1929.880859 0.168770
1929.627930 0.182770
1928.936523 0.152276
1928.678711 0.154092
1927.993164 0.165965
1927.728516 0.147241
1927.048828 0.161820
1926.779297 0.167653
1926.104492 0.157677
1925.829102 0.175791
1925.160156 0.179582
1924.878906 0.171664
1924.215820 0.168584
1923.928711 0.182522
1923.270508 0.174034
1922.977539 0.170224
1922.326172 0.164411
1922.026367 0.163378
1921.380859 0.168490
1921.075195 0.152451
1920.435547 0.165720
1920.124023 0.167386
1919.490234 0.167059
1919.172852 0.178233
1918.543945 0.149230
1918.220703 0.175471
1917.598633 0.162891
1917.268555 0.164552
1916.652344 0.182021
1916.316406 0.146839
1915.706055 0.162830
1915.364258 0.173992
1914.759766 0.158696
1914.411133 0.163080
1913.813477 0.157299
1913.458984 0.146739
1912.866211 0.165475
1912.505859 0.172515
1911.919922 0.170914
1911.552734 0.157536
1910.972656 0.157211
1910.598633 0.173794
1910.025391 0.170850
1909.645508 0.158822
1909.078125 0.173551
1908.691406 0.143857
1908.129883 0.169420
1907.737305 0.185886
1907.182617 0.163925
1906.782227 0.172278
1906.234375 0.185747
1905.828125 0.149183
1905.286133 0.148843
1904.873047 0.172199
1904.337891 0.178851
1903.917969 0.151826
1903.389648 0.151517
1902.962891 0.151791
1902.440430 0.184243
1902.006836 0.168016
1901.492188 0.184209
1901.051758 0.159849
1900.542969 0.162346
1900.095703 0.172002
1899.593750 0.148676
1899.139648 0.185502
1898.644531 0.174559
1898.183594 0.159739
1897.695313 0.159528
1897.226563 0.180003
1896.745117 0.173131
1896.269531 0.165078
1895.794922 0.170372
1895.312500 0.173157
1894.844727 0.171703
1894.355469 0.165002
1893.894531 0.155321
1893.398438 0.186598
1892.944336 0.152568
1892.440430 0.163574
1891.994141 0.178416
1891.482422 0.177052
1891.042969 0.166128
1890.524414 0.159445
1890.091797 0.164735
1889.566406 0.193181
1889.140625 0.163343
1888.607422 0.174228
1888.189453 0.185087
1887.648438 0.179589
1887.238281 0.156478
1886.689453 0.168747
1886.286133 0.165971
1885.730469 0.171407
1885.334961 0.146898
1884.770508 0.174066
1884.382813 0.163189
1883.811523 0.174026
1883.430664 0.182193
1882.851563 0.187473
1882.477539 0.148174
1881.891602 0.159113
1881.525391 0.152223
1880.930664 0.164468
1880.572266 0.167142
1879.970703 0.156343
1879.619141 0.160317
1879.009766 0.184604
1878.666016 0.150779
1878.048828 0.168395
1877.712891 0.171122
1877.086914 0.169703
1876.759766 0.161584
1876.125977 0.158891
1875.805664 0.169699
1875.164063 0.166932
1874.852539 0.184598
1874.202148 0.174968
1873.898438 0.164206
1873.240234 0.174927
1872.943359 0.156034
1872.277344 0.173541
1871.989258 0.193988
1871.315430 0.154671
1871.035156 0.151906
1870.352539 0.196320
1870.080078 0.161370
1869.389648 0.158632
1869.125000 0.173541
1868.425781 0.172035
1868.169922 0.151819
1867.462891 0.176026
1867.214844 0.173475
1866.499023 0.184045
1866.258789 0.177507
1865.535156 0.159827
1865.303711 0.165280
1864.570313 0.183959
1864.347656 0.163894
1863.606445 0.195998
1863.391602 0.173343
1862.641602 0.169110
1862.435547 0.158416
1861.676758 0.187856
1861.479492 0.161093
1860.711914 0.175950
1860.522461 0.194519
1859.746094 0.175917
1859.565430 0.178379
1858.781250 0.175883
1858.608398 0.172974
1857.815430 0.181260
1857.651367 0.180976
1856.849609 0.186635
1856.694336 0.197017
1855.882813 0.175782
1855.736328 0.202330
1854.916992 0.164933
1854.779297 0.174151
1853.950195 0.171659
1853.821289 0.180806
1852.983398 0.185140
1852.863281 0.166035
1852.015625 0.166189
1851.905273 0.196785
1851.048828 0.170210
1850.946289 0.186032
1850.081055 0.180982
1849.988281 0.198030
1849.113281 0.164743
1849.029297 0.179255
1848.145508 0.182262
1848.070313 0.181888
1847.176758 0.172778
1847.111328 0.200564
1846.208008 0.176794
1846.151367 0.168434
1845.239258 0.210493
1845.192383 0.196460
1844.270508 0.188867
1844.232422 0.193741
1843.301758 0.203668
1843.272461 0.204382
1842.332031 0.167218
1842.312500 0.196320
1841.362305 0.184713
1841.352539 0.174910
1840.392578 0.184677
1840.391602 0.204236
1839.430664 0.185990
1839.422852 0.176162
1838.470703 0.172479
1838.452148 0.194800
1837.508789 0.204779
1837.481445 0.185416
1836.547852 0.171065
1836.510742 0.188039
1835.586914 0.196619
1835.540039 0.193327
1834.625000 0.179077
1834.568359 0.217275
1833.663086 0.187120
1833.597656 0.207894
1832.701172 0.215348
1832.625000 0.213174
1831.739258 0.189739
1831.653320 0.211791
1830.777344 0.193738
1830.681641 0.209077
1829.814453 0.213878
1829.708984 0.213022
1828.851563 0.209801
1828.736328 0.208978
1827.888672 0.189591
1827.763672 0.222235
1826.925781 0.182833
1826.790039 0.208878
1825.962891 0.209679
1825.817383 0.203507
1824.999023 0.200231
1824.843750 0.207448
1824.035156 0.205567
1823.869141 0.207398
1823.071289 0.193437
1822.895508 0.192728
1822.107422 0.193399
1821.920898 0.221916
1821.143555 0.209475
1820.947266 0.207249
1820.178711 0.190639
1819.971680 0.166025
1819.214844 0.189259
1818.997070 0.201838
1818.250000 0.210694
1818.021484 0.197807
1817.285156 0.195894
1817.046875 0.203068
1816.319336 0.169026
1816.070313 0.193731
1815.354492 0.201182
1815.094727 0.189704
1814.388672 0.199802
1814.119141 0.184353
1813.422852 0.185016
1813.142578 0.189613
1812.457031 0.195703
1812.166016 0.185590
1811.491211 0.175562
1811.188477 0.173617
1810.525391 0.184907
1810.211914 0.190800
1809.558594 0.176833
1809.234375 0.202676
1808.591797 0.172780
1808.256836 0.186735
1807.625000 0.178103
1807.279297 0.191986
1806.658203 0.186101
1806.300781 0.198558
1805.690430 0.192757
1805.322266 0.209097
1804.723633 0.199411
1804.343750 0.199785
1803.755859 0.190005
1803.365234 0.206350
1802.788086 0.192644
1802.386719 0.212912
1801.820313 0.185918
1801.407227 0.203606
1800.851563 0.201929
1800.427734 0.203556
1799.883789 0.216596
1799.448242 0.218043
1798.915039 0.203186
1798.467773 0.187603
1797.946289 0.215175
1797.488281 0.202087
1796.977539 0.183063
1796.507813 0.204679
1796.007813 0.212418
1795.527344 0.205949
1795.039063 0.193676
1794.545898 0.224377
1794.069336 0.197644
1793.564453 0.184736
1793.099609 0.198940
1792.583008 0.200521
1792.129883 0.210915
1791.601563 0.218937
1791.160156 0.198862
1790.620117 0.213609
1790.189453 0.208163
1789.637695 0.216193
1789.218750 0.213459
1788.655273 0.195053
1788.248047 0.193409
1787.672852 0.202911
1787.277344 0.213374
1786.690430 0.231842
1786.306641 0.197332
1785.707031 0.189642
1785.334961 0.215956
1784.723633 0.211978
1784.364258 0.217246
1783.740234 0.213242
1783.392578 0.205210
1782.756836 0.207926
1782.420898 0.203837
1781.772461 0.206559
1781.448242 0.207793
1780.788086 0.215716
1780.476563 0.226396
1779.803711 0.203828
1779.503906 0.229014
1778.819336 0.219554
1778.531250 0.199682
1777.833984 0.218185
1777.558594 0.203635
1776.848633 0.219445
1776.585938 0.232870
1775.863281 0.229901
1775.612305 0.220850
1774.877930 0.236411
1774.638672 0.216815
1773.891602 0.246857
1773.666016 0.234061
1772.905273 0.229730
1772.691406 0.236673
1771.918945 0.224424
1771.717773 0.237956
1770.931641 0.240566
1770.744141 0.228304
1769.945313 0.233874
1769.769531 0.233495
1768.958008 0.248442
1768.794922 0.233437
1767.970703 0.220498
1767.820313 0.218957
1766.982422 0.225766
1766.845703 0.230699
1765.995117 0.236343
1765.870117 0.226711
1765.006836 0.242934
1764.894531 0.233205
1764.018555 0.240231
1763.919922 0.218739
1763.029297 0.244164
1762.944336 0.239636
1762.041016 0.241462
1761.967773 0.223867
1761.051758 0.230802
1760.992188 0.244752
1760.062500 0.241365
1760.015625 0.231606
1759.072266 0.220102
1759.039063 0.228932
1758.083008 0.235966
1758.062500 0.209257
1757.092773 0.229292
1757.085938 0.232740
1756.108398 0.227921
1756.101563 0.218302
1755.131836 0.219926
1755.111328 0.230010
1754.154297 0.225180
1754.120117 0.226032
1753.176758 0.223811
1753.128906 0.205076
1752.198242 0.223766
1751.220703 0.232988
1750.242188 0.228970
1749.263672 0.234217
1748.285156 0.218294
1747.306641 0.206346
1746.327148 0.211594
1745.348633 0.236674
1744.369141 0.231338
1743.389648 0.226005
1742.409180 0.219353
1741.429688 0.228557
1740.449219 0.223227
1739.468750 0.225823
1738.488281 0.252185
1737.507813 0.234973
1736.526367 0.249443
1735.544922 0.230919
1734.563477 0.240108
1733.582031 0.217636
1732.600586 0.251879
1731.618164 0.222822
1730.636719 0.210913
1729.654297 0.267542
1728.671875 0.255629
1727.688477 0.214738
1726.706055 0.252891
1725.722656 0.209383
1724.739258 0.234356
1723.755859 0.239574
1722.771484 0.240842
1721.788086 0.232898
1720.803711 0.242060
1719.819336 0.226227
1718.834961 0.238017
1717.850586 0.228765
1716.865234 0.237920
1715.879883 0.275984
1714.894531 0.268044
1713.909180 0.245657
1712.923828 0.239040
1711.937500 0.253436
1710.951172 0.280955
1709.964844 0.240207
1708.978516 0.248032
1707.991211 0.249294
1707.004883 0.245308
1706.017578 0.271488
1705.030273 0.242585
1704.042969 0.279244
1703.054688 0.252972
1702.066406 0.246368
1701.078125 0.264661
1700.089844 0.268537
1699.101563 0.258004
1698.113281 0.248786
1697.124023 0.248735
1696.134766 0.268317
1695.145508 0.269571
1694.155273 0.272133
1693.166016 0.241991
1692.175781 0.248481
1691.185547 0.251045
1690.195313 0.265374
1689.205078 0.271854
1688.213867 0.245664
1687.222656 0.266517
1686.231445 0.275606
1685.240234 0.270326
1684.249023 0.242851
1683.256836 0.270215
1682.264648 0.259718
1681.272461 0.247921
1680.280273 0.258307
1679.287109 0.249124
1678.294922 0.251681
1677.301758 0.280312
1676.308594 0.262005
1675.315430 0.276287
1674.321289 0.254080
1673.327148 0.241000
1672.333008 0.247463
1671.338867 0.277362
1670.344727 0.249965
1669.349609 0.260327
1668.355469 0.260273
1667.360352 0.283639
1666.365234 0.254962
1665.369141 0.277019
1664.374023 0.270461
1663.377930 0.249605
1662.381836 0.246953
1661.384766 0.249501
1660.388672 0.259844
1659.391602 0.268883
1658.395508 0.279217
1657.397461 0.266175
1656.400391 0.284294
1655.403320 0.263469
1654.405273 0.269902
1653.407227 0.263360
1652.409180 0.278870
1651.411133 0.272328
1650.412109 0.283941
1649.413086 0.291660
1648.414063 0.269567
1647.415039 0.270807
1646.416016 0.290183
1645.416016 0.294008
1644.416016 0.265459
1643.416016 0.282234
1642.416016 0.328774
1641.415039 0.297647
1640.415039 0.278177
1639.414063 0.294936
1638.413086 0.278062
1637.411133 0.288348
1636.410156 0.296045
1635.408203 0.303738
1634.406250 0.310136
1633.404297 0.295860
1632.402344 0.284173
1631.399414 0.277657
1630.396484 0.296966
1629.393555 0.320141
1628.390625 0.304586
1627.387695 0.300652
1626.383789 0.327681
1625.379883 0.292788
1624.375977 0.319807
1623.372070 0.300401
1622.367188 0.320963
1621.362305 0.328628
1620.357422 0.311809
1619.352539 0.305303
1618.347656 0.341302
1617.341797 0.316765
1616.335938 0.321848
1615.330078 0.337226
1614.324219 0.334582
1613.318359 0.303634
1612.311523 0.333156
1611.304688 0.330514
1610.297852 0.308586
1609.291016 0.318806
1608.283203 0.323880
1607.275391 0.326382
1606.267578 0.337876
1605.259766 0.344227
1604.251953 0.327461
1603.243164 0.309418
1602.234375 0.299084
1601.225586 0.324688
1600.216797 0.322054
1599.207031 0.333532
1598.198242 0.320636
1597.188477 0.319287
1596.178711 0.305117
1595.167969 0.330688
1594.158203 0.316522
1593.147461 0.326705
1592.136719 0.324075
1591.125977 0.326568
1590.114258 0.344425
1589.103516 0.321310
1588.091797 0.307164
1587.080078 0.294304
1586.067383 0.340297
1585.055664 0.335109
1584.042969 0.346547
1583.030273 0.318347
1582.017578 0.306776
1581.003906 0.329714
1579.991211 0.319423
1578.977539 0.306582
1577.963867 0.330783
1576.949219 0.312837
1575.935547 0.324260
1574.920898 0.303770
1573.906250 0.287117
1572.891602 0.292159
1571.876953 0.313782
1570.861328 0.306064
1569.845703 0.318749
1568.830078 0.293187
1567.814453 0.330084
1566.797852 0.303256
1565.782227 0.314658
1564.765625 0.292939
1563.749023 0.280143
1562.731445 0.286449
1561.714844 0.287661
1560.697266 0.292691
1559.679688 0.283722
1558.662109 0.326911
1557.643555 0.303950
1556.625000 0.292442
1555.607422 0.282211
1554.587891 0.302486
1553.569336 0.304963
1552.549805 0.306168
1551.531250 0.321345
1550.511719 0.309848
1549.491211 0.290738
1548.471680 0.280522
1547.451172 0.288076
1546.430664 0.304509
1545.410156 0.305713
1544.389648 0.305648
1543.368164 0.300511
1542.346680 0.306786
1541.325195 0.297848
1540.303711 0.301586
1539.282227 0.291387
1538.259766 0.316657
1537.237305 0.308991
1536.214844 0.291200
1535.191406 0.298733
1534.168945 0.272093
1533.145508 0.289749
1532.122070 0.318782
1531.098633 0.312390
1530.074219 0.303472
1529.050781 0.314785
1528.026367 0.312190
1527.000977 0.307069
1525.976563 0.315847
1524.951172 0.303148
1523.926758 0.295506
1522.901367 0.300493
1521.875000 0.325675
1520.849609 0.307937
1519.823242 0.310394
1518.796875 0.341865
1517.770508 0.332963
1516.743164 0.311456
1515.716797 0.322735
1514.689453 0.308801
1513.662109 0.307475
1512.634766 0.304889
1511.606445 0.304824
1510.578125 0.312314
1509.549805 0.318543
1508.521484 0.308404
1507.493164 0.312113
1506.463867 0.325887
1505.434570 0.308205
1504.405273 0.303108
1503.375977 0.325677
1502.345703 0.326864
1501.315430 0.319252
1500.285156 0.327980
1499.254883 0.301526
1498.223633 0.317790
1497.193359 0.297629
1496.162109 0.313887
1495.130859 0.338924
1494.098633 0.327556
1493.067383 0.321212
1492.035156 0.331178
1491.002930 0.316057
1489.969727 0.314735
1488.937500 0.325950
1487.904297 0.319612
1486.871094 0.308265
1485.837891 0.293165
1484.803711 0.323163
1483.770508 0.294290
1482.736328 0.315511
1481.702148 0.309184
1480.666992 0.312872
1479.632813 0.305297
1478.597656 0.316489
1477.562500 0.307666
1476.527344 0.321354
1475.491211 0.330035
1474.455078 0.287468
1473.418945 0.287406
1472.382813 0.331070
1471.346680 0.321006
1470.309570 0.320936
1469.272461 0.307133
1468.235352 0.317053
1467.198242 0.294520
1466.160156 0.323153
1465.122070 0.318094
1464.083984 0.315530
1463.045898 0.337906
1462.006836 0.327859
1460.968750 0.337759
1459.929688 0.301549
1458.889648 0.327646
1457.850586 0.331311
1456.810547 0.351163
1455.771484 0.296307
1454.730469 0.333584
1453.690430 0.321067
1452.649414 0.349613
1451.609375 0.332122
1450.568359 0.329563
1449.526367 0.336951
1448.485352 0.329419
1447.443359 0.344261
1446.401367 0.346671
1445.359375 0.327961
1444.316406 0.341552
1443.274414 0.355136
1442.231445 0.327747
1441.188477 0.352499
1440.144531 0.349940
1439.101563 0.341179
1438.057617 0.333662
1437.013672 0.342270
1435.968750 0.350874
1434.924805 0.384266
1433.879883 0.364353
1432.834961 0.367990
1431.790039 0.384013
1430.744141 0.393837
1429.698242 0.408609
1428.653320 0.396141
1427.606445 0.418332
1426.560547 0.389780
1425.513672 0.385983
1424.466797 0.395793
1423.419922 0.426621
1422.373047 0.447545
1421.325195 0.422726
1420.277344 0.416454
1419.229492 0.417598
1418.181641 0.398978
1417.132813 0.406300
1416.084961 0.422261
1415.036133 0.425872
1413.986328 0.435651
1412.937500 0.451596
1411.887695 0.424357
1410.837891 0.445230
1409.788086 0.441433
1408.738281 0.462293
1407.687500 0.437541
1406.636719 0.430051
1405.585938 0.418869
1404.534180 0.427398
1403.483398 0.437156
1402.431641 0.422285
1401.379883 0.414807
1400.327148 0.462709
1399.275391 0.430618
1398.222656 0.393621
1397.169922 0.440266
1396.117188 0.429103
1395.063477 0.408111
1394.009766 0.422769
1392.956055 0.394415
1391.902344 0.468034
1390.848633 0.434770
1389.793945 0.450636
1388.739258 0.435805
1387.684570 0.451664
1386.628906 0.415979
1385.574219 0.442876
1384.518555 0.439098
1383.462891 0.437775
1382.406250 0.447485
1381.350586 0.438806
1380.293945 0.459541
1379.237305 0.445962
1378.179688 0.460562
1377.123047 0.487402
1376.065430 0.456684
1375.007813 0.484737
1373.949219 0.429558
1372.891602 0.434356
1371.833008 0.429366
1370.774414 0.419487
1369.715820 0.453630
1368.656250 0.413188
1367.596680 0.442428
1366.537109 0.413004
1365.477539 0.427571
1364.417969 0.403049
1363.357422 0.406622
1362.296875 0.395544
1361.236328 0.418646
1360.174805 0.388046
1359.113281 0.383079
1358.052734 0.398850
1356.990234 0.381689
1355.928711 0.392576
1354.866211 0.410772
1353.803711 0.378996
1352.741211 0.392313
1351.678711 0.401970
1350.615234 0.386048
1349.551758 0.428576
1348.488281 0.387093
1347.424805 0.397959
1346.360352 0.428288
1345.295898 0.426975
1344.231445 0.392827
1343.166992 0.408545
1342.101563 0.410885
1341.036133 0.408362
1339.970703 0.411916
1338.905273 0.405749
1337.838867 0.410516
1336.772461 0.417709
1335.706055 0.376339
1334.639648 0.409025
1333.572266 0.384664
1332.504883 0.412481
1331.437500 0.434220
1330.370117 0.420784
1329.302734 0.434025
1328.234375 0.404837
1327.166016 0.414440
1326.096680 0.417981
1325.028320 0.408197
1323.958984 0.380252
1322.889648 0.409223
1321.820313 0.395816
1320.750000 0.410249
1319.679688 0.392008
1318.609375 0.405225
1317.539063 0.368853
1316.468750 0.377233
1315.397461 0.374730
1314.326172 0.381896
1313.254883 0.390268
1312.182617 0.391387
1311.142578 0.406999
1311.110352 0.404418
1310.069336 0.383965
1310.038086 0.386310
1308.997070 0.392328
1308.965820 0.412795
1307.923828 0.392239
1307.892578 0.356002
1306.851563 0.361985
1306.820313 0.376451
1305.778320 0.373966
1305.747070 0.367939
1304.704102 0.369057
1304.672852 0.389583
1303.630859 0.362944
1303.599609 0.396749
1302.557617 0.372506
1302.525391 0.373769
1301.483398 0.366395
1301.451172 0.409867
1300.409180 0.381977
1300.376953 0.384482
1299.334961 0.362615
1299.301758 0.368747
1298.259766 0.383007
1298.227539 0.361452
1297.185547 0.387737
1297.152344 0.383070
1296.110352 0.376979
1296.076172 0.398483
1295.035156 0.399790
1295.000977 0.387560
1293.959961 0.399718
1293.924805 0.400709
1292.883789 0.370756
1292.848633 0.378962
1291.808594 0.388742
1291.772461 0.375268
1290.732422 0.388671
1290.695313 0.402840
1289.656250 0.417475
1289.618164 0.423186
1288.580078 0.392139
1288.541016 0.412272
1287.502930 0.411310
1287.463867 0.433808
1286.426758 0.413641
1286.386719 0.422896
1285.349609 0.458048
1285.308594 0.381961
1284.272461 0.400268
1284.230469 0.423904
1283.195313 0.397791
1283.152344 0.417804
1282.118164 0.406130
1282.073242 0.402104
1281.040039 0.395244
1280.994141 0.394812
1279.961914 0.387965
1279.915039 0.370726
1278.883789 0.357871
1278.835938 0.401828
1277.805664 0.422643
1277.755859 0.368158
1276.727539 0.400957
1276.676758 0.356085
1275.648438 0.361275
1275.596680 0.366791
1274.569336 0.370809
1274.515625 0.367905
1273.490234 0.335947
1273.435547 0.343859
1272.411133 0.350280
1272.354492 0.352165
1271.332031 0.353814
1271.273438 0.347293
1270.251953 0.372935
1270.191406 0.349608
1269.171875 0.351286
1269.110352 0.327982
1268.091797 0.334439
1268.028320 0.347054
1267.011719 0.337973
1266.946289 0.343385
1265.931641 0.340307
1265.864258 0.327756
1264.850586 0.328264
1264.781250 0.320505
1263.769531 0.304247
1263.698242 0.320431
1262.688477 0.332933
1262.615234 0.309599
1261.607422 0.306529
1261.532227 0.334625
1260.526367 0.326824
1260.448242 0.313041
1259.444336 0.345914
1259.364258 0.318941
1258.362305 0.324309
1258.280273 0.304537
1257.280273 0.319463
1257.196289 0.299691
1256.198242 0.343329
1256.111328 0.304396
1255.115234 0.339677
1255.026367 0.335355
1254.033203 0.303739
1253.941406 0.325733
1252.950195 0.316834
1252.856445 0.297028
1251.867188 0.322752
1251.770508 0.310078
1250.783203 0.328667
1250.684570 0.324314
1249.700195 0.307097
1249.598633 0.272981
1248.616211 0.321376
1248.511719 0.301521
1247.532227 0.314150
1247.425781 0.300259
1246.448242 0.293788
1246.338867 0.309720
1245.364258 0.304480
1245.250977 0.297738
1244.279297 0.311586
1244.164063 0.304813
1243.195313 0.297204
1243.076172 0.301172
1242.110352 0.292375
1241.988281 0.303482
1241.024414 0.316183
1240.900391 0.342677
1239.939453 0.307773
1239.812500 0.314047
1238.853516 0.318449
1238.723633 0.310407
1237.768555 0.316005
1237.634766 0.319847
1236.682617 0.337405
1236.544922 0.300752
1235.595703 0.290853
1235.456055 0.304248
1234.509766 0.307483
1234.366211 0.308930
1233.422852 0.302659
1233.276367 0.310046
1232.336914 0.296645
1232.186523 0.289784
1231.250000 0.312074
1231.095703 0.288529
1230.162109 0.310824
1230.004883 0.301520
1229.075195 0.308384
1228.914063 0.308570
1227.987305 0.294040
1227.823242 0.288328
1226.899414 0.295174
1226.731445 0.282329
1225.811523 0.284409
1225.639648 0.285821
1224.723633 0.320048
1224.547852 0.292869
1223.634766 0.297386
1223.456055 0.312952
1222.546875 0.309222
1222.363281 0.305768
1221.458008 0.311542
1221.270508 0.302142
1220.368164 0.279383
1220.177734 0.298518
1219.279297 0.318555
1219.084961 0.288974
1218.189453 0.313741
1217.991211 0.299562
1217.100586 0.307740
1216.897461 0.329086
1216.010742 0.311245
1215.803711 0.311257
1214.919922 0.323063
1214.708984 0.296986
1213.830078 0.336064
1213.614258 0.302831
1212.739258 0.301569
1212.519531 0.347701
1211.648438 0.362051
1211.424805 0.326336
1210.557617 0.326377
1210.329102 0.345173
1209.466797 0.357166
1209.234375 0.329728
1208.375977 0.340488
1208.138672 0.324925
1207.284180 0.343981
1207.041992 0.339024
1206.192383 0.332056
1205.946289 0.341306
1205.100586 0.317764
1204.849609 0.317611
1204.007813 0.329558
1203.752930 0.321078
1202.916016 0.308160
1202.655273 0.290318
1201.823242 0.318766
1201.558594 0.316207
1200.730469 0.331737
1200.460938 0.350341
1199.637695 0.305613
1199.362305 0.313700
1198.543945 0.312660
1198.264648 0.313626
1197.451172 0.317336
1197.166016 0.312373
1196.357422 0.313723
1196.067383 0.308764
1195.263672 0.310112
1194.968750 0.318117
1194.168945 0.328986
1193.870117 0.313330
1193.075195 0.317091
1192.770508 0.317966
1191.980469 0.337140
1191.670898 0.352035
1190.885742 0.366643
1190.570313 0.316639
1189.791016 0.345287
1189.470703 0.322448
1188.696289 0.347584
1188.370117 0.331784
1187.600586 0.321512
1187.269531 0.330529
1186.504883 0.352177
1186.167969 0.342211
1185.409180 0.326114
1185.067383 0.322143
1184.313477 0.318962
1183.965820 0.324417
1183.216797 0.291735
1182.864258 0.303188
1182.121094 0.304668
1181.761719 0.310165
1181.024414 0.309331
1180.659180 0.304218
1179.927734 0.299827
1179.556641 0.274788
1178.830078 0.289147
1178.454102 0.277071
1177.733398 0.299711
1177.351563 0.292264
1176.635742 0.297293
1176.248047 0.269898
1175.538086 0.292517
1175.144531 0.282739
1174.440430 0.281846
1174.040039 0.276807
1173.341797 0.294760
1172.936523 0.276741
1172.243164 0.299418
1171.832031 0.280193
1171.145508 0.272252
1170.727539 0.277782
1170.045898 0.280447
1169.622070 0.277715
1168.947266 0.288639
1168.517578 0.261248
1167.848633 0.267381
1167.412109 0.279925
1166.749023 0.266151
1166.306641 0.279858
1165.649414 0.264921
1165.200195 0.269255
1164.549805 0.280172
1164.093750 0.275043
1163.449219 0.271879
1162.987305 0.307741
1162.348633 0.277709
1161.880859 0.278421
1161.249023 0.280007
1160.773438 0.253794
1160.147461 0.258779
1159.666016 0.266595
1159.046875 0.266961
1158.558594 0.286404
1157.946289 0.279842
1157.451172 0.285166
1156.844727 0.280962
1156.342773 0.278087
1155.743164 0.271504
1155.234375 0.281525
1154.641602 0.291427
1154.125977 0.291968
1153.539063 0.271397
1153.017578 0.274384
1152.436523 0.283090
1151.908203 0.268482
1151.334961 0.286557
1150.798828 0.268417
1150.231445 0.275933
1149.689453 0.281187
1149.128906 0.304053
1148.579102 0.253124
1148.026367 0.271129
1147.468750 0.284550
1146.922852 0.299239
1146.358398 0.293809
1145.819336 0.279234
1145.248047 0.278585
1144.715820 0.295601
1144.136719 0.294833
1143.611328 0.294370
1143.025391 0.288936
1142.506836 0.280241
1141.914063 0.274889
1141.403320 0.289563
1140.801758 0.281810
1140.297852 0.267236
1139.689453 0.264278
1139.193359 0.275386
1138.577148 0.277018
1138.088867 0.298764
1137.464844 0.272296
1136.983398 0.267077
1136.351563 0.279210
1135.877930 0.322068
1135.239258 0.252392
1134.771484 0.291560
1134.125000 0.310471
1133.666016 0.289160
1133.011719 0.267382
1132.559570 0.270375
1131.897461 0.283589
1131.453125 0.297236
1130.783203 0.289330
1130.346680 0.270267
1129.668945 0.281128
1129.240234 0.279571
1128.553711 0.256670
1128.132813 0.294719
1127.439453 0.297247
1127.025391 0.295830
1126.324219 0.275119
1125.917969 0.299278
1125.208008 0.275052
1124.810547 0.269997
1124.092773 0.310953
1123.702148 0.267606
1122.976563 0.288838
1122.594727 0.290919
1121.859375 0.288767
1121.486328 0.293197
1120.743164 0.286378
1120.377930 0.289635
1119.625977 0.279353
1119.268555 0.267391
1118.508789 0.271173
1118.159180 0.286016
1117.391602 0.272266
1117.050781 0.281290
1116.273438 0.271041
1115.940430 0.302239
1115.155273 0.279081
1114.831055 0.274177
1114.037109 0.274382
1113.721680 0.255458
1112.918945 0.274314
1112.611328 0.239079
1111.799805 0.258047
1111.500977 0.274011
1110.680664 0.246415
1110.389648 0.258801
1109.561523 0.277583
1109.279297 0.289053
1108.441406 0.242825
1108.167969 0.269185
1107.321289 0.269354
1107.056641 0.248159
1106.201172 0.257731
1105.945313 0.228307
1105.081055 0.246113
1104.833984 0.239907
1103.959961 0.251828
1103.721680 0.257324
1102.838867 0.265625
1102.609375 0.277062
1101.717773 0.256323
1101.497070 0.245581
1100.595703 0.228556
1100.384766 0.264149
1099.473633 0.261967
1099.271484 0.239664
1098.351563 0.264210
1098.158203 0.262879
1097.229492 0.262991
1097.044922 0.254685
1096.106445 0.269846
1095.931641 0.246495
1094.983398 0.251333
1094.818359 0.238307
1093.860352 0.243202
1093.704102 0.244070
1092.737305 0.245447
1092.589844 0.239373
1091.613281 0.243082
1091.475586 0.254427
1090.489258 0.257995
1090.360352 0.255537
1089.364258 0.261386
1089.246094 0.260130
1088.240234 0.245204
1088.130859 0.229890
1087.115234 0.264709
1087.015625 0.249577
1085.989258 0.258890
1085.900391 0.243723
1084.864258 0.264578
1084.784180 0.255277
1083.738281 0.246111
1083.667969 0.259866
1082.612305 0.239152
1082.551758 0.250534
1081.486328 0.274726
1081.435547 0.266717
1080.359375 0.273509
1080.318359 0.251591
1079.232422 0.278036
1079.202148 0.248062
1078.105469 0.281413
1078.084961 0.256124
1076.977539 0.277898
1076.966797 0.294308
1075.849609 0.244535
1075.849609 0.265287
1074.731445 0.298419
1074.721680 0.283764
1073.613281 0.285722
1073.593750 0.272126
1072.495117 0.281062
1072.464844 0.272071
1071.376953 0.272015
1071.335938 0.277552
1070.257813 0.293947
1070.207031 0.305001
1069.138672 0.300829
1069.077148 0.293462
1068.019531 0.289200
1067.948242 0.295680
1066.900391 0.316898
1066.817383 0.318521
1065.781250 0.312207
1065.687500 0.312714
1064.661133 0.290178
1064.556641 0.329814
1063.541016 0.330573
1063.425781 0.324007
1062.419922 0.307393
1062.294922 0.321636
1061.299805 0.330437
1061.163086 0.303246
1060.178711 0.316507
1060.032227 0.322619
1059.057617 0.319907
1058.899414 0.330544
1057.936523 0.333697
1057.767578 0.304161
1056.815430 0.307077
1056.634766 0.331521
1055.693359 0.316247
1055.501953 0.330295
1054.571289 0.336953
1054.369141 0.309645
1053.449219 0.305733
1053.235352 0.334697
1052.327148 0.337967
1052.101563 0.339181
1051.204102 0.294075
1050.967773 0.324253
1050.081055 0.336675
1049.833984 0.316181
1048.958008 0.326230
1048.699219 0.320666
1047.834961 0.321553
1047.564453 0.328571
1046.710938 0.319182
1046.428711 0.293130
1045.586914 0.302987
1045.293945 0.309020
1044.462891 0.309836
1044.158203 0.327181
1043.338867 0.302862
1043.021484 0.288348
1042.213867 0.294740
1041.885742 0.319040
1041.089844 0.302737
1040.749023 0.275672
1039.964844 0.294618
1039.612305 0.307489
1038.838867 0.273846
1038.474609 0.303996
1037.713867 0.289894
1037.337891 0.300503
1036.587891 0.288684
1036.200195 0.274254
1035.461914 0.285175
1035.061523 0.284423
1034.335938 0.289714
1033.923828 0.278664
1033.209961 0.278160
1032.785156 0.277455
1032.083008 0.279251
1031.646484 0.268290
1030.956055 0.291831
1030.506836 0.250037
1029.829102 0.287176
1029.367188 0.282924
1028.701172 0.280225
1028.227539 0.245366
1027.574219 0.273278
1027.087891 0.272559
1026.446289 0.275517
1025.947266 0.261136
1025.318359 0.292676
1024.806641 0.270149
1024.189453 0.269664
1023.666016 0.275754
1023.061523 0.265019
1022.524414 0.276818
1021.932617 0.261523
1021.382813 0.260868
1020.803711 0.259175
1020.241211 0.259667
1019.674805 0.264853
1019.098633 0.231260
1018.544922 0.277408
1017.957031 0.256134
1017.415039 0.259013
1016.813477 0.254935
1016.285156 0.264688
1015.670898 0.226551
1015.155273 0.232556
1014.527344 0.260466
1014.024414 0.249687
1013.383789 0.249078
1012.894531 0.263377
1012.240234 0.258068
1011.763672 0.267901
1011.095703 0.270449
1010.631836 0.257543
1009.951172 0.266986
1009.500977 0.242612
1008.806641 0.270310
1008.369141 0.264300
1007.662109 0.253279
1007.237305 0.249374
1006.516602 0.255475
1006.105469 0.259615
1005.371094 0.256539
1004.972656 0.281286
1004.224609 0.245174
1003.840820 0.280083
1003.079102 0.248499
1002.708008 0.249165
1001.932617 0.234884
1001.575195 0.259397
1000.785156 0.261918
1000.441406 0.257058
999.638672 0.244920
999.307617 0.286702
998.491211 0.264039
998.173828 0.267228
997.342773 0.252689
997.040039 0.260321
996.195313 0.272924
995.906250 0.257983
995.046875 0.270598
994.771484 0.278472
993.898438 0.238966
993.636719 0.262439
992.749023 0.255807
992.501953 0.263524
991.599609 0.285032
991.367188 0.282858
990.450195 0.273695
990.231445 0.283939
989.300781 0.286010
989.095703 0.269058
987.959961 0.280400
986.824219 0.323645
985.687500 0.297372
984.550781 0.324648
983.414063 0.305219
982.277344 0.324511
981.139648 0.317612
980.001953 0.299334
978.864258 0.328857
977.726563 0.313998
976.587891 0.321893
975.449219 0.303630
974.310547 0.331990
973.171875 0.313732
972.032227 0.319348
970.893555 0.322689
969.752930 0.308989
968.613281 0.293023
967.473633 0.289554
966.333008 0.298575
965.192383 0.292836
964.050781 0.304122
962.910156 0.311999
961.768555 0.293784
960.626953 0.308464
959.485352 0.283455
958.342773 0.274326
957.200195 0.278801
956.057617 0.281008
954.915039 0.277549
953.771484 0.277490
952.628906 0.243460
951.485352 0.258126
950.340820 0.261466
949.197266 0.264806
948.052734 0.244384
946.908203 0.272611
945.762695 0.264636
944.618164 0.265710
943.472656 0.258871
942.327148 0.259946
941.181641 0.256500
940.035156 0.265483
938.888672 0.260909
937.742188 0.248431
936.595703 0.237088
935.448242 0.256226
934.301758 0.252786
933.154297 0.253860
932.005859 0.258318
930.858398 0.262773
929.709961 0.276248
928.561523 0.284079
927.413086 0.300924
926.263672 0.271563
925.114258 0.307555
923.964844 0.313120
922.815430 0.293910
921.665039 0.303979
920.514648 0.300537
919.364258 0.315102
918.213867 0.317285
917.062500 0.316091
915.911133 0.314899
914.759766 0.331697
913.608398 0.331626
912.456055 0.322563
911.303711 0.358451
910.151367 0.349386
908.999023 0.336956
907.845703 0.331268
906.692383 0.334565
905.539063 0.356942
904.385742 0.353498
903.231445 0.348934
902.077148 0.330911
900.922852 0.358877
899.768555 0.350951
898.613281 0.338544
897.458008 0.333988
896.302734 0.324951
895.146484 0.350647
893.991211 0.355051
892.834961 0.319141
891.678711 0.353778
890.521484 0.353702
889.364258 0.360339
888.207031 0.389351
887.049805 0.417231
885.892578 0.424969
884.734375 0.414814
883.576172 0.446024
882.417969 0.417987
881.258789 0.423483
880.099609 0.413337
878.940430 0.409896
877.781250 0.372958
876.621094 0.363946
875.461914 0.363867
874.301758 0.320267
873.140625 0.319082
871.980469 0.329051
870.819336 0.278796
869.658203 0.307724
868.496094 0.283134
867.334961 0.276385
866.172852 0.275211
865.010742 0.280721
863.847656 0.257271
862.685547 0.276144
861.522461 0.273858
860.359375 0.281589
859.195313 0.275964
858.031250 0.304829
856.867188 0.275843
855.703125 0.282455
854.539063 0.282393
853.374023 0.287889
852.208984 0.290049
851.043945 0.295541
849.877930 0.327690
848.711914 0.329839
847.545898 0.315333
846.379883 0.310824
845.212891 0.316305
844.046875 0.311797
842.879883 0.333916
841.711914 0.323861
840.544922 0.327116
839.376953 0.355869
838.208008 0.363550
837.040039 0.392282
835.871094 0.430972
834.702148 0.488475
833.533203 0.558135
832.364258 0.699730
831.194336 0.822445
830.024414 0.879811
828.854492 0.944898
827.683594 1.000000
826.513672 0.925681
825.342773 0.832598
824.170898 0.750611
823.000000 0.666449
821.828125 0.629838
820.656250 0.522540
819.483398 0.493708
818.311523 0.426240
817.138672 0.395234
815.965820 0.392939
814.791992 0.336573
813.619141 0.350842
812.445313 0.320982
811.270508 0.349584
810.096680 0.329661
808.921875 0.286599
807.747070 0.328414
806.572266 0.304101
805.396484 0.298526
804.221680 0.268724
803.045898 0.290686
801.869141 0.298328
800.693359 0.276250
799.516602 0.290494
798.339844 0.276128
797.162109 0.285966
795.985352 0.283703
794.807617 0.282541
793.628906 0.284677
792.451172 0.299998
791.272461 0.331792
790.093750 0.314144
788.915039 0.311878
787.735352 0.295341
786.556641 0.301861
785.375977 0.332522
784.196289 0.300630
783.015625 0.302757
781.835938 0.326817
780.654297 0.294947
779.473633 0.292689
778.291992 0.286049
777.110352 0.280506
775.928711 0.260725
774.747070 0.294620
773.564453 0.258419
772.381836 0.276973
771.199219 0.286762
770.015625 0.272472
768.832031 0.272412
767.648438 0.271257
766.464844 0.290880
765.280273 0.296282
764.095703 0.287472
762.911133 0.307078
761.725586 0.339786
760.541016 0.358280
759.355469 0.368029
758.168945 0.408344
756.983398 0.402795
755.796875 0.388518
754.610352 0.380793
753.422852 0.373072
752.236328 0.348995
751.048828 0.368544
749.861328 0.301964
748.672852 0.334593
747.485352 0.312725
746.296875 0.309387
745.107422 0.321299
743.918945 0.294004
742.729492 0.289584
741.540039 0.282988
740.349609 0.254632
739.160156 0.275246
737.969727 0.286061
736.779297 0.291434
735.587891 0.287020
734.397461 0.283695
733.206055 0.262984
732.013672 0.278135
730.822266 0.279159
729.629883 0.263893
728.437500 0.289891
727.244141 0.283313
726.051758 0.298443
724.858398 0.258231
723.665039 0.260342
722.470703 0.288481
721.276367 0.290585
720.082031 0.306780
718.887695 0.274197
717.693359 0.288221
716.498047 0.270824
715.302734 0.300005
714.106445 0.305352
712.911133 0.291210
711.714844 0.285732
710.517578 0.302981
709.321289 0.284522
708.124023 0.288784
706.926758 0.284393
705.729492 0.283248
704.531250 0.303720
703.333008 0.295007
702.134766 0.316548
700.936523 0.295954
699.737305 0.313165
698.538086 0.321731
697.338867 0.316262
696.138672 0.326982
694.938477 0.302093
693.738281 0.297710
692.538086 0.323524
691.336914 0.338546
690.135742 0.325534
688.934570 0.326538
687.732422 0.338316
686.531250 0.352243
685.328125 0.334932
684.125977 0.317628
682.923828 0.357385
681.720703 0.325018
680.516602 0.350767
679.313477 0.344233
678.109375 0.350608
676.905273 0.368808
675.701172 0.368724
674.496094 0.370790
673.291992 0.357811
672.085938 0.374918
670.880859 0.380203
669.674805 0.403740
668.468750 0.369295
667.262695 0.373504
666.055664 0.360543
664.849609 0.373334
663.642578 0.358233
662.434570 0.319549
661.227539 0.358070
660.019531 0.352629
658.810547 0.381482
657.602539 0.334256
656.393555 0.353459
655.184570 0.315899
653.975586 0.329745
652.765625 0.347866
651.555664 0.329594
650.345703 0.349847
649.134766 0.319817
647.924805 0.321883
646.712891 0.331432
645.501953 0.329218
644.291016 0.328074
643.079102 0.309836
641.866211 0.323652
640.654297 0.318238
639.441406 0.323503
638.228516 0.326632
637.015625 0.322288
635.801758 0.319014
634.587891 0.326407
633.374023 0.314602
632.160156 0.323059
630.945313 0.329381
629.730469 0.323977
628.514648 0.327099
627.299805 0.329154
626.083984 0.328014
624.868164 0.317291
623.651367 0.321476
622.435547 0.336302
621.218750 0.343672
620.000977 0.351040
618.784180 0.335006
617.566406 0.357258
616.347656 0.334852
615.129883 0.351780
613.911133 0.336823
612.692383 0.283631
611.473633 0.323924
610.253906 0.307922
609.034180 0.326959
607.814453 0.324761
606.594727 0.297098
605.374023 0.305517
604.153320 0.305446
602.931641 0.301134
601.710938 0.296824
600.489258 0.303115
599.267578 0.316820
598.044922 0.290263
596.822266 0.287018
595.599609 0.302835
594.376953 0.310175
593.153320 0.282586
591.929688 0.295218
590.706055 0.290918
589.481445 0.281332
588.257813 0.311931
587.032227 0.282259
585.807617 0.305446
584.582031 0.293752
583.356445 0.300022
582.130859 0.295728
580.905273 0.284044
579.678711 0.288201
578.452148 0.281801
577.224609 0.306005
575.997070 0.285890
574.769531 0.298480
573.541992 0.270995
572.313477 0.280420
571.084961 0.293003
569.856445 0.283451
568.627930 0.292866
567.398438 0.278053
566.168945 0.310631
564.939453 0.288451
563.708984 0.282069
562.478516 0.297787
561.248047 0.310342
560.016602 0.299752
558.785156 0.296527
557.553711 0.260715
556.322266 0.294287
555.089844 0.286863
553.857422 0.298352
552.625000 0.306685
551.391602 0.296113
550.158203 0.309691
548.924805 0.282330
547.690430 0.287511
546.457031 0.301081
545.222656 0.314645
543.987305 0.298843
542.752930 0.320788
541.517578 0.308136
540.281250 0.290251
539.045898 0.309040
537.809570 0.304778
536.573242 0.282717
535.335938 0.320338
534.099609 0.307703
532.861328 0.299260
531.624023 0.308605
530.385742 0.295982
529.148438 0.304278
527.909180 0.298979
526.670898 0.296819
525.431641 0.295704
524.192383 0.306081
522.952148 0.300787
521.712891 0.319511
520.472656 0.327787
519.231445 0.331885
517.991211 0.310938
516.750000 0.312952
515.508789 0.314964
514.266602 0.323231
513.024414 0.326282
511.782227 0.327247
510.540039 0.306331
509.296875 0.328135
508.053711 0.316601
506.810547 0.318609
505.566406 0.337271
504.322266 0.312214
503.078125 0.327748
501.833008 0.323509
500.587891 0.336952
499.342773 0.325436
498.097656 0.336793
496.851563 0.346066
495.605469 0.376115
494.359375 0.360445
493.112305 0.320897
491.865234 0.342624
490.618164 0.338391
489.370117 0.359066
488.123047 0.358981
486.874023 0.375492
485.625977 0.369180
484.376953 0.376350
483.127930 0.372115
481.878906 0.395861
480.628906 0.378154
479.378906 0.381172
478.128906 0.412147
476.877930 0.411014
475.626953 0.399531
474.375977 0.398401
473.125000 0.414859
471.873047 0.407520
470.621094 0.414661
469.368164 0.457983
468.115234 0.480612
466.862305 0.450531
465.609375 0.488648
464.355469 0.537074
463.102539 0.550370
461.847656 0.596694
460.593750 0.666734
459.338867 0.772855
458.083984 0.794333
456.828125 0.837460
455.572266 0.873349
454.316406 0.834998
453.060547 0.764716
451.803711 0.737743
450.546875 0.675759
449.290039 0.611745
448.032227 0.548791
446.774414 0.489985
445.516602 0.465168
444.257813 0.461970
442.999023 0.421742
441.740234 0.406215
440.481445 0.422568
439.221680 0.427606
437.961914 0.430586
436.701172 0.400687
435.441406 0.442704
434.180664 0.449786
432.918945 0.430171
431.658203 0.448543
430.396484 0.426886
429.133789 0.438068
427.872070 0.452322
426.609375 0.424526
425.346680 0.410071
424.083008 0.416122
422.819336 0.374009
421.555664 0.396456
420.291016 0.408651
419.027344 0.389097
417.762695 0.404358
416.497070 0.406307
415.231445 0.399047
413.965820 0.388721
412.700195 0.429535
411.433594 0.429430
410.166992 0.411949
408.900391 0.404695
407.632813 0.394380
406.365234 0.413692
405.097656 0.387040
403.830078 0.408386
402.561523 0.448095
401.291992 0.424515
400.023438 0.434614
398.753906 0.463068
397.484375 0.431344
396.214844 0.484252
394.944336 0.452538
393.673828 0.481978
392.402344 0.491029
391.130859 0.455262
389.859375 0.482644
388.587891 0.505940
387.315430 0.498692
386.042969 0.505693
384.770508 0.516759
383.497070 0.516632
382.223633 0.530741
380.950195 0.528578
379.676758 0.544708
378.402344 0.507999
377.126953 0.559678
375.852539 0.547355
374.577148 0.545190
373.301758 0.510546
372.025391 0.534775
370.749023 0.541746
369.472656 0.537556
368.196289 0.523228
366.918945 0.562636
365.641602 0.543241
364.363281 0.562359
363.085938 0.561208
361.807617 0.554993
360.528320 0.547769
359.249023 0.550671
357.969727 0.548511
356.690430 0.542305
355.410156 0.553298
354.129883 0.561252
352.849609 0.546959
351.568359 0.544803
350.287109 0.521426
349.005859 0.565749
347.723633 0.559549
346.441406 0.562440
345.159180 0.598644
343.875977 0.529865
342.592773 0.539824
341.309570 0.545743
340.026367 0.541574
338.742188 0.555555
337.457031 0.531225
336.172852 0.532101
334.887695 0.552119
333.602539 0.555004
332.316406 0.542782
331.030273 0.543654
329.744141 0.554590
328.457031 0.566527
327.170898 0.579464
325.882813 0.606476
324.595703 0.595264
323.307617 0.593105
322.019531 0.633158
320.730469 0.624962
319.441406 0.632842
318.152344 0.624650
316.863281 0.646582
315.573242 0.689582
314.283203 0.698441
312.992188 0.702279
311.701172 0.711131
310.410156 0.720980
309.119141 0.768920
307.827148 0.807815
306.535156 0.832662
305.242188 0.846478
303.950195 0.903351
302.656250 0.941172
301.363281 0.999994
300.069336 1.056785
298.775391 1.092537
297.480469 1.140274
296.186523 1.125987
294.891602 1.171691
293.595703 1.202380
292.299805 1.209072
291.003906 1.203772
289.708008 1.264391
288.411133 1.252090
287.114258 1.272737
285.816406 1.300359
284.518555 1.267105
283.220703 1.297707
281.922852 1.251506
280.624023 1.264150
279.325195 1.238912
278.025391 1.217673
276.725586 1.223342
275.425781 1.230003
274.125977 1.222721
272.825195 1.192547
271.523438 1.268875
270.222656 1.262583
268.920898 1.296081
267.619141 1.271885
266.316406 1.300393
265.013672 1.303044
263.710938 1.349415
262.408203 1.367946
261.104492 1.405338
259.799805 1.405972
258.496094 1.449291
257.191406 1.469761
255.886719 1.481292
254.581055 1.431318
253.275391 1.569783
251.969727 1.549554
250.663086 1.581865
249.356445 1.574523
248.049805 1.655352
246.742188 1.668793
245.434570 1.658464
244.126953 1.631312
242.818359 1.672457
241.509766 1.672027
240.201172 1.648848
238.891602 1.624691
237.582031 1.588684
236.271484 1.588275
234.961914 1.542413
233.650391 1.516332
232.339844 1.445823
231.028320 1.442488
229.716797 1.444090
228.405273 1.374640
227.092773 1.351593
225.779297 1.372943
224.466797 1.309480
223.153320 1.255908
221.839844 1.363008
220.525391 1.314375
219.210938 1.249022
217.896484 1.270364
216.581055 1.255266
215.265625 1.244113
213.950195 1.230998
212.633789 1.226743
211.317383 1.188068
210.000977 1.198574
208.683594 1.166807
207.366211 1.211709
206.048828 1.194691
204.730469 1.203219
203.412109 1.189158
202.092773 1.188848
200.773438 1.159094
199.454102 1.182339
198.133789 1.171240
196.814453 1.216045
195.493164 1.213766
194.172852 1.161499
192.851563 1.170994
191.529297 1.174605
190.208008 1.229144
188.885742 1.202384
187.562500 1.174660
186.239258 1.213496
184.916016 1.195566
183.592773 1.234376
182.268555 1.242852
180.944336 1.235682
179.619141 1.249039
178.293945 1.272159
176.968750 1.276708
175.643555 1.299809
174.317383 1.298489
172.990234 1.298146
171.664063 1.353423
170.336914 1.357942
169.008789 1.356607
167.680664 1.366973
166.352539 1.387081
165.024414 1.451030
163.695313 1.440903
162.366211 1.477531
161.036133 1.481034
159.706055 1.504003
158.375977 1.561022
157.044922 1.589795
155.713867 1.698313
154.382813 1.711475
153.050781 1.779070
151.718750 1.814556
150.385742 1.840307
149.053711 1.959296
147.719727 1.932552
146.386719 2.024268
145.052734 2.081963
143.717773 2.074613
142.383789 2.147785
141.048828 2.131691
139.712891 2.201899
138.377930 2.232325
137.041016 2.262736
135.705078 2.279566
134.368164 2.245054
133.031250 2.255102
131.693359 2.277727
130.355469 2.250984
129.017578 2.263922
127.678711 2.220753
126.339844 2.247229
125.000977 2.178953
123.661133 2.260512
122.321289 2.198065
120.980469 2.225482
119.639648 2.198807
118.298828 2.231035
116.957031 2.212092
115.615234 2.247193
114.273438 2.289026
112.930664 2.280689
111.587891 2.320561
110.244141 2.277522
108.900391 2.294246
107.556641 2.208851
106.211914 2.158171
104.867188 2.094040
103.522461 1.883640
102.176758 1.687789
100.831055 1.499740
99.484375 1.378153
98.137695 1.124911
