3198.529297 0.008291
3197.824219 0.007536
3197.119141 0.010549
3196.414063 0.007534
3195.708008 0.012806
3195.001953 0.007532
3194.296875 0.006777
3193.590820 0.005271
3192.884766 0.007528
3192.178711 0.008280
3191.472656 0.009031
3190.765625 0.010535
3190.059570 0.006019
3189.352539 0.015045
3188.646484 0.009025
3187.939453 0.010528
3187.232422 0.009022
3186.525391 0.008269
3185.818359 0.015033
3185.111328 0.006764
3184.404297 0.005260
3183.696289 0.013523
3182.989258 0.009014
3182.281250 0.016523
3181.573242 0.007509
3180.865234 0.011262
3180.157227 0.012011
3179.449219 0.003753
3178.741211 0.008255
3178.033203 0.011255
3177.324219 0.009003
3176.616211 0.001500
3175.907227 0.008250
3175.198242 0.013497
3174.489258 0.007497
3173.780273 0.008995
3173.071289 0.014990
3172.362305 0.005995
3171.652344 0.013486
3170.943359 0.003746
3170.233398 0.009737
3169.523438 0.008238
3168.814453 0.007488
3168.104492 0.012727
3167.394531 0.011976
3166.683594 0.016465
3165.973633 0.003741
3165.263672 0.014963
3164.552734 0.008977
3163.841797 0.003740
3163.130859 0.013460
3162.420898 0.002991
3161.709961 0.008223
3160.998047 0.010464
3160.287109 0.007473
3159.576172 0.008966
3158.864258 0.002988
3158.153320 0.015686
3157.441406 0.010456
3156.729492 0.008214
3156.017578 0.007466
3155.305664 0.008211
3154.593750 0.006717
3153.880859 0.008208
3153.168945 0.011938
3152.456055 0.004476
3151.744141 0.011934
3151.031250 0.017152
3150.318359 0.009693
3149.605469 0.002236
3148.892578 0.008199
3148.178711 0.010433
3147.465820 0.007451
3146.751953 0.008195
3146.039063 0.007449
3145.325195 0.014150
3144.611328 0.009680
3143.897461 0.010423
3143.183594 0.008188
3142.468750 0.011164
3141.754883 0.011162
3141.041016 0.008184
3140.326172 0.005207
3139.611328 0.006694
3138.896484 0.012642
3138.181641 0.007435
3137.466797 0.007434
3136.751953 0.014122
3136.037109 0.000743
3135.321289 0.015603
3134.605469 0.006686
3133.890625 0.009656
3133.174805 0.011882
3132.458984 0.016335
3131.743164 0.015590
3131.027344 0.009649
3130.310547 0.008906
3129.594727 0.009646
3128.877930 0.011870
3128.161133 0.010385
3127.445313 0.005192
3126.728516 0.013347
3126.010742 0.005931
3125.293945 0.009636
3124.577148 0.011858
3123.859375 0.011115
3123.142578 0.017781
3122.424805 0.007408
3121.707031 0.012591
3120.989258 0.004443
3120.271484 0.008885
3119.553711 0.013325
3118.835938 0.011102
3118.117188 0.006660
3117.399414 0.005919
3116.680664 0.007398
3115.961914 0.011834
3115.243164 0.011832
3114.524414 0.003697
3113.805664 0.008132
3113.086914 0.011826
3112.367188 0.010346
3111.648438 0.008867
3110.928711 0.011820
3110.208984 0.007386
3109.489258 0.008862
3108.769531 0.011814
3108.049805 0.008859
3107.329102 0.012548
3106.609375 0.010332
3105.888672 0.009592
3105.168945 0.008115
3104.448242 0.013277
3103.727539 0.008850
3103.006836 0.014010
3102.285156 0.014007
3101.564453 0.005160
3100.843750 0.008844
3100.122070 0.014000
3099.400391 0.011051
3098.678711 0.011049
3097.957031 0.008838
3097.235352 0.014727
3096.513672 0.011043
3095.791992 0.007361
3095.069336 0.010303
3094.346680 0.013245
3093.625000 0.016186
3092.902344 0.007356
3092.179688 0.016180
3091.457031 0.008824
3090.733398 0.011763
3090.010742 0.010291
3089.287109 0.008084
3088.564453 0.009553
3087.840820 0.008816
3087.117188 0.017629
3086.393555 0.008079
3085.669922 0.008812
3084.946289 0.013949
3084.221680 0.022755
3083.498047 0.016146
3082.773438 0.017611
3082.048828 0.017608
3081.324219 0.008802
3080.599609 0.010268
3079.875000 0.015399
3079.149414 0.012463
3078.424805 0.013194
3077.699219 0.010260
3076.974609 0.015388
3076.249023 0.006594
3075.523438 0.010255
3074.797852 0.012450
3074.071289 0.018306
3073.345703 0.004393
3072.619141 0.012444
3071.893555 0.021224
3071.166992 0.016098
3070.440430 0.015364
3069.713867 0.021213
3068.987305 0.013164
3068.259766 0.013162
3067.533203 0.021932
3066.805664 0.011695
3066.079102 0.016078
3065.351563 0.013883
3064.624023 0.015342
3063.896484 0.013148
3063.168945 0.011685
3062.440430 0.015334
3061.712891 0.017521
3060.984375 0.014598
3060.255859 0.016055
3059.527344 0.010215
3058.798828 0.016050
3058.070313 0.010941
3057.341797 0.018961
3056.613281 0.016770
3055.883789 0.013122
3055.154297 0.018222
3054.424805 0.012389
3053.695313 0.010201
3052.965820 0.016027
3052.236328 0.015296
3051.506836 0.017477
3050.776367 0.007281
3050.046875 0.017471
3049.316406 0.013829
3048.585938 0.010916
3047.855469 0.013096
3047.125000 0.014549
3046.393555 0.022547
3045.663086 0.007999
3044.931641 0.015995
3044.201172 0.008723
3043.469727 0.015263
3042.738281 0.007993
3042.006836 0.015984
3041.275391 0.011622
3040.542969 0.014525
3039.811523 0.013070
3039.079102 0.014520
3038.346680 0.016695
3037.614258 0.012338
3036.881836 0.010884
3036.149414 0.016686
3035.416992 0.013056
3034.683594 0.016680
3033.951172 0.016677
3033.217773 0.017399
3032.484375 0.012322
3031.750977 0.015943
3031.017578 0.016665
3030.284180 0.016662
3029.549805 0.012313
3028.816406 0.013759
3028.082031 0.014481
3027.347656 0.017374
3026.613281 0.010857
3025.878906 0.012302
3025.144531 0.013747
3024.410156 0.015914
3023.674805 0.013019
3022.939453 0.020247
3022.205078 0.012291
3021.469727 0.018071
3020.734375 0.020236
3019.999023 0.020233
3019.262695 0.017339
3018.527344 0.015891
3017.791016 0.018777
3017.054688 0.021662
3016.318359 0.012995
3015.582031 0.019489
3014.845703 0.012990
3014.109375 0.023811
3013.373047 0.019478
3012.635742 0.013704
3011.898438 0.018750
3011.161133 0.023793
3010.424805 0.017301
3009.686523 0.022343
3008.949219 0.021618
3008.211914 0.027378
3007.473633 0.019449
3006.736328 0.019446
3005.998047 0.024483
3005.259766 0.021599
3004.521484 0.015836
3003.782227 0.017273
3003.043945 0.017269
3002.305664 0.025899
3001.566406 0.026614
3000.827148 0.028047
3000.087891 0.022290
2999.348633 0.024442
2998.609375 0.024438
2997.870117 0.021559
2997.129883 0.014370
2996.389648 0.023706
2995.650391 0.017956
2994.910156 0.025852
2994.169922 0.031590
2993.429688 0.017946
2992.688477 0.025119
2991.948242 0.025832
2991.207031 0.027262
2990.465820 0.024388
2989.725586 0.025818
2988.983398 0.022228
2988.242188 0.027959
2987.500977 0.027237
2986.759766 0.026516
2986.017578 0.027944
2985.275391 0.025073
2984.533203 0.027933
2983.791016 0.030793
2983.048828 0.030787
2982.306641 0.027202
2981.563477 0.030060
2980.821289 0.035063
2980.078125 0.040780
2979.334961 0.040772
2978.591797 0.027177
2977.848633 0.033607
2977.105469 0.030741
2976.361328 0.034309
2975.618164 0.039305
2974.874023 0.036440
2974.129883 0.042862
2973.385742 0.034998
2972.641602 0.050702
2971.897461 0.037841
2971.152344 0.046400
2970.408203 0.044964
2969.663086 0.048523
2968.917969 0.046374
2968.172852 0.050645
2967.427734 0.044930
2966.682617 0.050626
2965.936523 0.041349
2965.191406 0.058447
2964.445313 0.061287
2963.699219 0.052013
2962.953125 0.069100
2962.207031 0.050569
2961.460938 0.063377
2960.713867 0.066213
2959.967773 0.066913
2959.220703 0.056225
2958.473633 0.062618
2957.726563 0.054069
2956.979492 0.060461
2956.232422 0.061160
2955.484375 0.063282
2954.737305 0.073223
2953.989258 0.082449
2953.241211 0.071063
2952.493164 0.078155
2951.745117 0.076009
2950.997070 0.075284
2950.248047 0.082371
2949.500000 0.075966
2948.750977 0.080211
2948.001953 0.084454
2947.252930 0.073085
2946.503906 0.085131
2945.754883 0.075185
2945.004883 0.078717
2944.255859 0.085792
2943.505859 0.077269
2942.755859 0.079381
2942.005859 0.087869
2941.255859 0.082185
2940.504883 0.068710
2939.754883 0.082154
2939.003906 0.084262
2938.252930 0.076459
2937.502930 0.072197
2936.750977 0.072184
2936.000000 0.086321
2935.249023 0.082060
2934.497070 0.077801
2933.746094 0.078493
2932.994141 0.077064
2932.242188 0.070688
2931.490234 0.072795
2930.738281 0.072781
2929.985352 0.076299
2929.233398 0.065690
2928.480469 0.074858
2927.727539 0.067077
2926.974609 0.071300
2926.221680 0.072698
2925.468750 0.070567
2924.715820 0.064204
2923.961914 0.067718
2923.208008 0.078990
2922.455078 0.072628
2921.701172 0.069795
2920.946289 0.069076
2920.192383 0.071177
2919.438477 0.063413
2918.683594 0.066924
2917.928711 0.066206
2917.173828 0.071123
2916.418945 0.059845
2915.664063 0.074615
2914.909180 0.068267
2914.153320 0.063329
2913.398438 0.064020
2912.642578 0.071041
2911.886719 0.072434
2911.130859 0.063983
2910.375000 0.068189
2909.619141 0.056930
2908.862305 0.072379
2908.105469 0.071662
2907.349609 0.056195
2906.592773 0.074444
2905.835938 0.072323
2905.078125 0.068097
2904.321289 0.068084
2903.563477 0.065264
2902.806641 0.065252
2902.048828 0.071552
2901.291016 0.068733
2900.533203 0.077836
2899.774414 0.066604
2899.016602 0.067993
2898.257813 0.067279
2897.500000 0.074273
2896.741211 0.065852
2895.982422 0.067940
2895.222656 0.066527
2894.463867 0.066514
2893.705078 0.072101
2892.945313 0.073487
2892.185547 0.078371
2891.425781 0.076957
2890.666016 0.074843
2889.906250 0.072032
2889.146484 0.072018
2888.385742 0.072004
2887.625000 0.071990
2886.864258 0.071277
2886.103516 0.074058
2885.342773 0.071948
2884.582031 0.076823
2883.821289 0.063541
2883.059570 0.083775
2882.297852 0.069799
2881.536133 0.066994
2880.774414 0.071167
2880.012695 0.082315
2879.250977 0.062770
2878.488281 0.078099
2877.726563 0.064837
2876.963867 0.070401
2876.201172 0.073872
2875.438477 0.071071
2874.674805 0.081506
2873.912109 0.076615
2873.149414 0.080778
2872.385742 0.071712
2871.622070 0.083531
2870.858398 0.071684
2870.094727 0.079324
2869.330078 0.076526
2868.566406 0.083466
2867.801758 0.065369
2867.038086 0.077872
2866.273438 0.085503
2865.508789 0.078536
2864.743164 0.080606
2863.978516 0.073643
2863.212891 0.062515
2862.448242 0.070142
2861.682617 0.081237
2860.916992 0.076362
2860.151367 0.068712
2859.384766 0.087435
2858.619141 0.080480
2857.852539 0.086014
2857.086914 0.078368
2856.320313 0.084593
2855.553711 0.086657
2854.786133 0.076936
2854.019531 0.077614
2853.251953 0.079677
2852.485352 0.071349
2851.717773 0.085879
2850.950195 0.076168
2850.182617 0.089307
2849.414063 0.071293
2848.646484 0.088580
2847.877930 0.083028
2847.110352 0.086470
2846.341797 0.078154
2845.573242 0.081596
2844.803711 0.081580
2844.035156 0.083638
2843.266602 0.082930
2842.497070 0.071168
2841.727539 0.067700
2840.958008 0.075284
2840.188477 0.065602
2839.418945 0.068350
2838.648438 0.070408
2837.878906 0.079366
2837.108398 0.075900
2836.337891 0.077955
2835.567383 0.075870
2834.795898 0.068270
2834.025391 0.071014
2833.254883 0.064796
2832.483398 0.070297
2831.711914 0.076485
2830.940430 0.073025
2830.168945 0.070944
2829.397461 0.067487
2828.625000 0.067474
2827.852539 0.070903
2827.081055 0.081212
2826.308594 0.070875
2825.536133 0.064669
2824.762695 0.069471
2823.990234 0.070833
2823.216797 0.072881
2822.444336 0.070117
2821.670898 0.072853
2820.897461 0.063218
2820.123047 0.063206
2819.349609 0.063880
2818.576172 0.059060
2817.801758 0.067288
2817.027344 0.063156
2816.252930 0.060398
2815.478516 0.059700
2814.704102 0.059688
2813.928711 0.069279
2813.154297 0.060350
2812.378906 0.063081
2811.603516 0.059641
2810.828125 0.055516
2810.052734 0.066470
2809.276367 0.063031
2808.500977 0.063703
2807.724609 0.064375
2806.948242 0.060939
2806.171875 0.068457
2805.395508 0.053386
2804.619141 0.063640
2803.841797 0.064996
2803.064453 0.062247
2802.288086 0.058131
2801.510742 0.065641
2800.733398 0.064261
2799.955078 0.057413
2799.177734 0.058768
2798.399414 0.056707
2797.621094 0.066259
2796.842773 0.053270
2796.064453 0.057356
2795.286133 0.059392
2794.507813 0.050508
2793.728516 0.067558
2792.950195 0.055946
2792.170898 0.056617
2791.391602 0.060697
2790.611328 0.060003
2789.832031 0.054538
2789.052734 0.049074
2788.272461 0.055197
2787.492188 0.055868
2786.711914 0.061987
2785.931641 0.059250
2785.151367 0.051749
2784.370117 0.045611
2783.588867 0.051047
2782.808594 0.055801
2782.027344 0.051027
2781.246094 0.042174
2780.463867 0.051687
2779.682617 0.052356
2778.900391 0.050986
2778.119141 0.057093
2777.336914 0.055043
2776.554688 0.048917
2775.771484 0.055021
2774.989258 0.050935
2774.206055 0.056357
2773.423828 0.054988
2772.640625 0.050904
2771.857422 0.050216
2771.074219 0.045456
2770.290039 0.055622
2769.506836 0.045438
2768.722656 0.053566
2767.938477 0.050165
2767.154297 0.049477
2766.370117 0.052856
2765.585938 0.044038
2764.800781 0.049448
2764.016602 0.046729
2763.231445 0.040625
2762.446289 0.049418
2761.661133 0.046024
2760.875000 0.041278
2760.089844 0.048035
2759.303711 0.042614
2758.518555 0.050721
2757.732422 0.052063
2756.945313 0.058136
2756.159180 0.050014
2755.373047 0.046625
2754.585938 0.043238
2753.798828 0.043229
2753.012695 0.047272
2752.224609 0.043887
2751.437500 0.046578
2750.650391 0.053318
2749.862305 0.056681
2749.074219 0.049249
2748.287109 0.059356
2747.499023 0.040462
2746.709961 0.050567
2745.921875 0.043816
2745.132813 0.041111
2744.344727 0.055253
2743.555664 0.045137
2742.766602 0.053210
2741.977539 0.045118
2741.187500 0.053862
2740.398438 0.050485
2739.608398 0.043745
2738.818359 0.053829
2738.028320 0.051127
2737.238281 0.048427
2736.448242 0.053796
2735.657227 0.053785
2734.866211 0.050414
2734.075195 0.053764
2733.284180 0.048377
2732.493164 0.052398
2731.702148 0.044328
2730.910156 0.055734
2730.119141 0.051023
2729.327148 0.045643
2728.535156 0.038923
2727.743164 0.046296
2726.950195 0.059703
2726.158203 0.050972
2725.365234 0.044926
2724.572266 0.046928
2723.779297 0.049600
2722.986328 0.044229
2722.193359 0.052930
2721.399414 0.050909
2720.606445 0.047550
2719.812500 0.036827
2719.018555 0.044853
2718.224609 0.036812
2717.430664 0.050857
2716.635742 0.043487
2715.840820 0.050836
2715.046875 0.044138
2714.251953 0.050816
2713.456055 0.038104
2712.661133 0.044111
2711.866211 0.044102
2711.070313 0.035408
2710.274414 0.050096
2709.478516 0.044743
2708.682617 0.050743
2707.886719 0.048730
2707.089844 0.050722
2706.293945 0.043372
2705.497070 0.057372
2704.700195 0.038685
2703.903320 0.039344
2703.105469 0.037336
2702.308594 0.047993
2701.510742 0.050649
2700.712891 0.045975
2699.915039 0.054625
2699.117188 0.042626
2698.319336 0.039953
2697.520508 0.043940
2696.722656 0.040602
2695.923828 0.051242
2695.125000 0.055223
2694.326172 0.055212
2693.526367 0.051875
2692.727539 0.043885
2691.927734 0.051854
2691.127930 0.044532
2690.328125 0.033890
2689.528320 0.041191
2688.728516 0.055132
2687.927734 0.049808
2687.126953 0.041830
2686.326172 0.047132
2685.525391 0.041149
2684.724609 0.047776
2683.923828 0.054400
2683.122070 0.045103
2682.321289 0.054378
2681.519531 0.041769
2680.717773 0.055018
2679.915039 0.044403
2679.113281 0.051682
2678.310547 0.053659
2677.508789 0.038414
2676.706055 0.050326
2675.903320 0.045019
2675.099609 0.045010
2674.296875 0.046986
2673.493164 0.039036
2672.690430 0.046966
2671.886719 0.039020
2671.083008 0.048269
2670.278320 0.051564
2669.474609 0.044944
2668.669922 0.042952
2667.865234 0.044925
2667.060547 0.049540
2666.255859 0.049529
2665.451172 0.042917
2664.646484 0.050829
2663.840820 0.041579
2663.035156 0.050148
2662.229492 0.042221
2661.423828 0.048808
2660.618164 0.049457
2659.811523 0.043513
2659.004883 0.042186
2658.199219 0.052721
2657.391602 0.046121
2656.584961 0.050723
2655.778320 0.046102
2655.033203 0.044214
2654.970703 0.042800
2654.227539 0.044874
2654.164063 0.044108
2653.421875 0.040908
2653.356445 0.053313
2652.616211 0.045519
2652.548828 0.055276
2651.810547 0.054086
2651.740234 0.049343
2651.004883 0.048802
2650.932617 0.052622
2650.198242 0.045497
2650.124023 0.049323
2649.392578 0.038897
2649.316406 0.046682
2648.585938 0.043505
2648.507813 0.051274
2647.779297 0.050747
2647.699219 0.044691
2646.972656 0.046126
2646.889648 0.049281
2646.166016 0.042825
2646.081055 0.042044
2645.359375 0.052040
2645.271484 0.051231
2644.552734 0.038200
2644.461914 0.053190
2643.745117 0.047413
2643.652344 0.044644
2642.938477 0.051356
2642.842773 0.053824
2642.130859 0.040815
2642.033203 0.049875
2641.323242 0.055288
2641.222656 0.048552
2640.515625 0.050015
2640.413086 0.053790
2639.708008 0.050007
2639.602539 0.043285
2638.899414 0.041446
2638.791992 0.049833
2638.091797 0.048675
2637.981445 0.051134
2637.283203 0.049982
2637.169922 0.056366
2636.475586 0.048659
2636.359375 0.051767
2635.666992 0.042734
2635.547852 0.047826
2634.858398 0.046013
2634.736328 0.043886
2634.049805 0.045348
2633.924805 0.043876
2633.241211 0.041398
2633.113281 0.052378
2632.431641 0.045334
2632.300781 0.050404
2631.623047 0.045983
2631.489258 0.058246
2630.813477 0.043348
2630.676758 0.051691
2630.003906 0.042684
2629.864258 0.052334
2629.194336 0.045960
2629.051758 0.041204
2628.384766 0.047265
2628.238281 0.049042
2627.575195 0.055134
2627.425781 0.059492
2626.765625 0.046593
2626.612305 0.048368
2625.955078 0.046586
2625.798828 0.046397
2625.145508 0.041986
2624.985352 0.050961
2624.334961 0.061000
2624.171875 0.051603
2623.524414 0.044595
2623.358398 0.045062
2622.713867 0.053112
2622.543945 0.047664
2621.903320 0.049169
2621.729492 0.052223
2621.092773 0.050472
2620.916016 0.040464
2620.281250 0.053085
2620.100586 0.045676
2619.469727 0.053732
2619.286133 0.056756
2618.659180 0.049136
2618.471680 0.048265
2617.847656 0.053714
2617.656250 0.047603
2617.036133 0.051085
2616.840820 0.060632
2616.224609 0.048457
2616.025391 0.048886
2615.412109 0.046485
2615.209961 0.057348
2614.600586 0.062187
2614.394531 0.046259
2613.788086 0.043851
2613.578125 0.056672
2612.976563 0.051042
2612.762695 0.046240
2612.164063 0.050379
2611.946289 0.051439
2611.351563 0.052333
2611.129883 0.054683
2610.539063 0.051670
2610.312500 0.053369
2609.726563 0.049046
2609.496094 0.046851
2608.913086 0.047730
2608.678711 0.053346
2608.100586 0.044453
2607.862305 0.061791
2607.287109 0.061439
2607.044922 0.053324
2606.473633 0.052933
2606.227539 0.053312
2605.660156 0.051618
2605.409180 0.061101
2604.846680 0.053569
2604.591797 0.059138
2604.033203 0.056825
2603.773438 0.055877
2603.218750 0.058775
2602.955078 0.055215
2602.405273 0.044400
2602.136719 0.050008
2601.590820 0.056796
2601.318359 0.051296
2600.776367 0.054829
2600.500000 0.052583
2599.961914 0.051556
2599.680664 0.058413
2599.147461 0.056115
2598.861328 0.055156
2598.333008 0.049581
2598.042969 0.050603
2597.518555 0.052834
2597.222656 0.049943
2596.703125 0.046956
2596.403320 0.051230
2595.888672 0.055425
2595.583984 0.059647
2595.073242 0.050851
2594.763672 0.047318
2594.257813 0.052146
2593.943359 0.053789
2593.442383 0.050182
2593.123047 0.052481
2592.625977 0.055387
2592.302734 0.050527
2591.810547 0.045605
2591.482422 0.056992
2590.994141 0.057973
2590.661133 0.049857
2590.178711 0.049497
2589.839844 0.060204
2589.362305 0.049488
2589.018555 0.046600
2588.545898 0.051433
2588.197266 0.056296
2587.729492 0.057282
2587.375977 0.044639
2586.913086 0.055320
2586.554688 0.050450
2586.095703 0.055961
2585.732422 0.051086
2585.279297 0.055951
2584.910156 0.053661
2584.461914 0.056592
2584.087891 0.059467
2583.644531 0.054631
2583.265625 0.047822
2582.827148 0.048119
2582.443359 0.046519
2582.009766 0.053962
2581.620117 0.060074
2581.192383 0.056553
2580.796875 0.052311
2580.374023 0.049394
2579.973633 0.060048
2579.556641 0.053934
2579.150391 0.056807
2578.738281 0.048727
2578.327148 0.056150
2577.919922 0.060411
2577.503906 0.048394
2577.101563 0.050009
2576.679688 0.061286
2576.283203 0.050650
2575.855469 0.061273
2575.464844 0.053238
2575.031250 0.054811
2574.645508 0.053229
2574.207031 0.053510
2573.827148 0.050623
2573.381836 0.054787
2573.007813 0.053210
2572.557617 0.049620
2572.188477 0.061635
2571.732422 0.041878
2571.369141 0.052543
2570.907227 0.054107
2570.549805 0.050588
2570.082031 0.048300
2569.730469 0.048634
2569.256836 0.047001
2568.910156 0.053812
2568.430664 0.052784
2568.090820 0.060933
2567.605469 0.055991
2567.270508 0.048608
2566.779297 0.053405
2566.450195 0.045360
2565.953125 0.054036
2565.629883 0.048591
2565.125977 0.052738
2564.809570 0.053765
2564.299805 0.052727
2563.989258 0.055051
2563.472656 0.048858
2563.167969 0.049861
2562.646484 0.046919
2562.346680 0.054384
2561.819336 0.049479
2561.526367 0.053080
2560.992188 0.057178
2560.705078 0.058895
2560.164063 0.044961
2559.883789 0.044649
2559.336914 0.052015
2559.061523 0.059521
2558.508789 0.055856
2558.240234 0.048514
2557.680664 0.051992
2557.417969 0.060147
2556.852539 0.051981
2556.596680 0.052377
2556.024414 0.050045
2555.774414 0.054307
2555.195313 0.056448
2554.952148 0.045894
2554.367188 0.055795
2554.129883 0.047179
2553.538086 0.048088
2553.307617 0.054924
2552.708984 0.060898
2552.484375 0.050392
2551.878906 0.057040
2551.662109 0.056843
2551.049805 0.054464
2550.838867 0.060707
2550.219727 0.051249
2550.015625 0.054885
2549.390625 0.056361
2549.192383 0.049711
2548.560547 0.055709
2548.369141 0.050993
2547.730469 0.046734
2547.544922 0.060019
2546.899414 0.058244
2546.721680 0.051620
2546.069336 0.049913
2545.897461 0.065804
2545.238281 0.053100
2545.074219 0.054182
2544.407227 0.056287
2544.250000 0.057396
2543.576172 0.064587
2543.425781 0.053518
2542.745117 0.046032
2542.600586 0.054797
2541.913086 0.059445
2541.776367 0.051565
2541.082031 0.043456
2540.951172 0.061867
2540.250000 0.056863
2540.126953 0.057345
2539.417969 0.053657
2539.301758 0.057335
2538.585938 0.056838
2538.476563 0.049595
2537.752930 0.053633
2537.651367 0.054094
2536.920898 0.058728
2536.826172 0.063099
2536.087891 0.059353
2536.000000 0.043775
2535.254883 0.059340
2535.174805 0.054709
2534.421875 0.052947
2534.348633 0.050838
2533.587891 0.045920
2533.522461 0.045038
2532.754883 0.055474
2532.696289 0.059826
2531.920898 0.052274
2531.870117 0.053383
2531.086914 0.059274
2531.042969 0.063019
2530.252930 0.059260
2530.216797 0.052078
2529.418945 0.060521
2529.389648 0.053997
2528.583984 0.060508
2528.562500 0.056558
2527.749023 0.061768
2527.735352 0.046909
2526.914063 0.056661
2526.908203 0.060393
2526.081055 0.054739
2526.079102 0.059097
2525.253906 0.051545
2525.244141 0.052022
2524.425781 0.062349
2524.409180 0.055223
2523.597656 0.059154
2523.573242 0.060349
2522.769531 0.060338
2522.737305 0.057869
2521.941406 0.053268
2521.901367 0.055313
2521.113281 0.060316
2521.065430 0.053394
2520.285156 0.060947
2520.228516 0.050840
2519.456055 0.055804
2519.392578 0.067983
2518.627930 0.060283
2518.555664 0.061616
2517.798828 0.051937
2517.718750 0.065412
2516.969727 0.060903
2516.881836 0.056508
2516.140625 0.063455
2516.043945 0.062844
2515.311523 0.054472
2515.207031 0.055214
2514.481445 0.052540
2514.369141 0.056470
2513.651367 0.065342
2513.531250 0.055823
2512.822266 0.060207
2512.693359 0.058347
2511.992188 0.063398
2511.855469 0.057700
2511.162109 0.062105
2511.016602 0.065294
2510.332031 0.062094
2510.177734 0.053238
2509.500977 0.065923
2509.338867 0.062730
2508.670898 0.064631
2508.500000 0.059548
2507.839844 0.064619
2507.661133 0.056368
2507.008789 0.046057
2506.821289 0.065220
2506.177734 0.063316
2505.982422 0.055077
2505.346680 0.061387
2505.142578 0.059495
2504.515625 0.053703
2504.302734 0.058848
2503.683594 0.060725
2503.461914 0.058835
2502.852539 0.054323
2502.622070 0.061351
2502.020508 0.058147
2501.781250 0.063867
2501.188477 0.056858
2500.940430 0.065117
2500.356445 0.056209
2500.099609 0.056253
2499.524414 0.063862
2499.258789 0.066983
2498.691406 0.064489
2498.416992 0.078340
2497.859375 0.065115
2497.576172 0.060005
2497.026367 0.059997
2496.734375 0.062517
2496.193359 0.057434
2495.892578 0.060608
2495.360352 0.071460
2495.050781 0.059963
2494.527344 0.061240
2494.208008 0.053639
2493.694336 0.058677
2493.365234 0.056782
2492.860352 0.061217
2492.523438 0.058030
2492.027344 0.059293
2491.680664 0.060539
2491.193359 0.058008
2490.836914 0.067461
2490.359375 0.057997
2489.994141 0.057990
2489.525391 0.056712
2489.150391 0.061758
2488.691406 0.061161
2488.306641 0.061744
2487.856445 0.065608
2487.462891 0.061730
2487.022461 0.061138
2486.619141 0.061716
2486.187500 0.064311
2485.775391 0.062961
2485.352539 0.068118
2484.930664 0.061058
2484.517578 0.065560
2484.085938 0.056009
2483.682617 0.064911
2483.241211 0.055996
2482.846680 0.063627
2482.396484 0.062274
2482.011719 0.065523
2481.550781 0.059115
2481.175781 0.064239
2480.706055 0.072933
2480.339844 0.075673
2479.860352 0.077945
2479.503906 0.058493
2479.014648 0.066615
2478.667969 0.065474
2478.168945 0.062202
2477.832031 0.064827
2477.322266 0.064700
2476.995117 0.062273
2476.476563 0.060917
2476.158203 0.062261
2475.629883 0.069693
2475.322266 0.070507
2474.783203 0.074071
2474.485352 0.067319
2473.936523 0.064640
2473.647461 0.055877
2473.088867 0.069017
2472.810547 0.064754
2472.242188 0.058965
2471.973633 0.065377
2471.394531 0.062087
2471.135742 0.067903
2470.546875 0.068342
2470.297852 0.059008
2469.698242 0.067700
2469.459961 0.069781
2468.850586 0.062044
2468.622070 0.058985
2468.001953 0.065788
2467.784180 0.067852
2467.153320 0.077048
2466.946289 0.064035
2466.304688 0.073273
2466.107422 0.065291
2465.456055 0.062612
2465.268555 0.068448
2464.607422 0.066979
2464.429688 0.074138
2463.757813 0.061957
2463.590820 0.065255
2462.908203 0.066322
2462.751953 0.065242
2462.058594 0.066307
2461.913086 0.067130
2461.208984 0.058161
2461.073242 0.065218
2460.358398 0.055647
2460.233398 0.065206
2459.508789 0.056884
2459.394531 0.056965
2458.658203 0.061870
2458.554688 0.071509
2457.807617 0.063730
2457.713867 0.064536
2456.956055 0.064340
2456.874023 0.061361
2456.105469 0.056830
2456.033203 0.065144
2455.253906 0.068056
2455.193359 0.063235
2454.402344 0.059301
2454.352539 0.067649
2453.550781 0.056790
2453.511719 0.067636
2452.699219 0.061145
2452.670898 0.071415
2451.846680 0.063001
2451.829102 0.058132
2450.995117 0.064234
2450.988281 0.067598
2450.146484 0.061101
2450.142578 0.065058
2449.304688 0.064204
2449.290039 0.068835
2448.462891 0.069797
2448.436523 0.065034
2447.621094 0.061865
2447.583984 0.059189
2446.779297 0.061853
2446.730469 0.059175
2445.937500 0.057424
2445.876953 0.064143
2445.094727 0.063723
2445.023438 0.059147
2444.251953 0.066234
2444.169922 0.051664
2443.409180 0.055500
2443.315430 0.071565
2442.566406 0.064948
2442.460938 0.057861
2441.723633 0.063674
2441.606445 0.057847
2440.879883 0.057989
2440.751953 0.063430
2440.037109 0.050416
2439.897461 0.060306
2439.193359 0.052927
2439.041992 0.071480
2438.349609 0.054807
2438.186523 0.052821
2437.505859 0.062984
2437.331055 0.062127
2436.662109 0.062972
2436.475586 0.065218
2435.817383 0.060442
2435.619141 0.055888
2434.973633 0.067355
2434.763672 0.057116
2434.128906 0.057901
2433.907227 0.059585
2433.284180 0.054115
2433.050781 0.057709
2432.439453 0.071091
2432.194336 0.055835
2431.593750 0.064787
2431.336914 0.053340
2430.749023 0.069806
2430.479492 0.060148
2429.903320 0.060361
2429.622070 0.057034
2429.058594 0.062864
2428.764648 0.058880
2428.212891 0.057824
2427.907227 0.055148
2427.367188 0.057185
2427.048828 0.056993
2426.520508 0.051519
2426.191406 0.063173
2425.674805 0.054022
2425.333008 0.063777
2424.828125 0.064688
2424.473633 0.053238
2423.982422 0.057769
2423.615234 0.066841
2423.135742 0.058386
2422.755859 0.061875
2422.289063 0.064651
2421.897461 0.074851
2421.441406 0.057736
2421.038086 0.058134
2420.594727 0.053960
2420.177734 0.063067
2419.747070 0.063987
2419.318359 0.052543
2418.900391 0.053312
2418.458008 0.063654
2418.052734 0.064589
2417.597656 0.056843
2417.205078 0.061442
2416.737305 0.054976
2416.356445 0.058296
2415.876953 0.051257
2415.508789 0.063299
2415.015625 0.062358
2414.660156 0.055767
2414.155273 0.051850
2413.812500 0.068286
2413.293945 0.053688
2412.963867 0.062010
2412.115234 0.064503
2411.266602 0.058229
2410.416992 0.061974
2409.568359 0.058833
2408.718750 0.063202
2407.869141 0.056933
2407.019531 0.066305
2406.169922 0.064416
2405.319336 0.060652
2404.469727 0.064391
2403.619141 0.065629
2402.768555 0.069990
2401.917969 0.057481
2401.066406 0.056221
2400.215820 0.058083
2399.364258 0.063692
2398.513672 0.061182
2397.662109 0.064292
2396.810547 0.059911
2395.958008 0.063643
2395.106445 0.068621
2394.253906 0.054886
2393.402344 0.058617
2392.549805 0.067958
2391.697266 0.057971
2390.843750 0.057960
2389.991211 0.066049
2389.137695 0.056691
2388.284180 0.062909
2387.430664 0.051687
2386.577148 0.065998
2385.723633 0.067230
2384.869141 0.049168
2384.015625 0.060359
2383.161133 0.068435
2382.306641 0.069666
2381.452148 0.060324
2380.597656 0.071504
2379.742188 0.049111
2378.886719 0.062153
2378.032227 0.070219
2377.176758 0.052810
2376.320313 0.062117
2375.464844 0.059620
2374.609375 0.060851
2373.752930 0.050285
2372.896484 0.068275
2372.040039 0.056471
2371.183594 0.061424
2370.326172 0.065134
2369.469727 0.070703
2368.612305 0.065728
2367.754883 0.063855
2366.897461 0.063843
2366.040039 0.059492
2365.182617 0.066916
2364.324219 0.063805
2363.465820 0.066270
2362.607422 0.061923
2361.749023 0.066864
2360.890625 0.060661
2360.031250 0.060649
2359.172852 0.069918
2358.313477 0.068048
2357.454102 0.063087
2356.594727 0.068022
2355.735352 0.065535
2354.875000 0.071086
2354.015625 0.055621
2353.155273 0.070440
2352.294922 0.071661
2351.434570 0.063618
2350.573242 0.063605
2349.712891 0.059888
2348.851563 0.072840
2347.990234 0.060482
2347.128906 0.060470
2346.267578 0.063543
2345.406250 0.056745
2344.543945 0.067834
2343.681641 0.066588
2342.819336 0.066575
2341.957031 0.067794
2341.094727 0.068397
2340.232422 0.067151
2339.369141 0.063443
2338.505859 0.074515
2337.642578 0.073269
2336.779297 0.073254
2335.916016 0.065854
2335.051758 0.072610
2334.188477 0.063367
2333.324219 0.065200
2332.459961 0.067647
2331.595703 0.068863
2330.730469 0.073768
2329.866211 0.059617
2329.000977 0.067593
2328.135742 0.062051
2327.270508 0.063267
2326.405273 0.071852
2325.540039 0.062014
2324.673828 0.065071
2323.807617 0.063217
2322.941406 0.081613
2322.075195 0.074848
2321.208984 0.067473
2320.341797 0.067459
2319.475586 0.072351
2318.608398 0.061915
2317.741211 0.078451
2316.874023 0.071695
2316.005859 0.068618
2315.138672 0.067379
2314.270508 0.067978
2313.402344 0.073475
2312.534180 0.067951
2311.666016 0.070385
2310.797852 0.068536
2309.928711 0.065463
2309.059570 0.066673
2308.190430 0.075222
2307.321289 0.061755
2306.452148 0.069690
2305.582031 0.062342
2304.712891 0.072106
2303.842773 0.073314
2302.972656 0.070856
2302.102539 0.069620
2301.231445 0.070828
2300.361328 0.064709
2299.490234 0.079954
2298.619141 0.068954
2297.748047 0.067110
2296.876953 0.074417
2296.004883 0.069523
2295.133789 0.067070
2294.261719 0.068885
2293.389648 0.071919
2292.517578 0.082873
2291.645508 0.074936
2290.772461 0.062739
2289.899414 0.071861
2289.027344 0.068803
2288.153320 0.073659
2287.280273 0.070601
2286.407227 0.075455
2285.533203 0.069356
2284.660156 0.066909
2283.786133 0.069328
2282.911133 0.079042
2282.037109 0.077203
2281.163086 0.071717
2280.288086 0.078387
2279.413086 0.066221
2278.538086 0.074711
2277.663086 0.069230
2276.787109 0.068002
2275.912109 0.069202
2275.036133 0.073437
2274.160156 0.064927
2273.284180 0.082507
2272.408203 0.075212
2271.531250 0.072165
2270.655273 0.072757
2269.778320 0.073348
2268.901367 0.075151
2268.024414 0.073924
2267.146484 0.069063
2266.269531 0.068443
2265.391602 0.072668
2264.513672 0.071443
2263.635742 0.073244
2262.757813 0.070809
2261.878906 0.070794
2261.000000 0.078040
2260.122070 0.078024
2259.243164 0.076194
2258.363281 0.068923
2257.484375 0.076163
2256.604492 0.077961
2255.725586 0.077341
2254.845703 0.066451
2253.965820 0.076705
2253.084961 0.073067
2252.205078 0.084523
2251.324219 0.076659
2250.443359 0.079660
2249.562500 0.071197
2248.681641 0.074802
2247.800781 0.078406
2246.918945 0.074772
2246.037109 0.071742
2245.155273 0.082577
2244.273438 0.075931
2243.391602 0.072903
2242.509766 0.084936
2241.626953 0.068658
2240.744141 0.069848
2239.861328 0.077058
2238.978516 0.074635
2238.094727 0.079434
2237.211914 0.070995
2236.328125 0.076995
2235.444336 0.082392
2234.560547 0.069749
2233.675781 0.078752
2232.791992 0.083544
2231.907227 0.079321
2231.022461 0.079304
2230.137695 0.085896
2229.252930 0.082875
2228.368164 0.075653
2227.482422 0.077439
2226.596680 0.076823
2225.710938 0.073807
2224.825195 0.076791
2223.938477 0.074376
2223.052734 0.072562
2222.166016 0.081541
2221.279297 0.068936
2220.392578 0.080309
2219.505859 0.072503
2218.618164 0.080276
2217.731445 0.078463
2216.843750 0.081441
2215.956055 0.073641
2215.068359 0.079013
2214.179688 0.081989
2213.291016 0.076587
2212.403320 0.078964
2211.514648 0.090910
2210.625977 0.077736
2209.736328 0.077720
2208.847656 0.074118
2207.958008 0.080078
2207.068359 0.083049
2206.178711 0.073475
2205.289063 0.072265
2204.398438 0.077624
2203.507813 0.068653
2202.618164 0.075802
2201.727539 0.075786
2200.835938 0.078754
2199.945313 0.087088
2199.053711 0.078125
2198.162109 0.078705
2197.270508 0.071535
2196.378906 0.082249
2195.487305 0.084615
2194.594727 0.080427
2193.703125 0.070285
2192.810547 0.073248
2191.917969 0.075614
2191.024414 0.070241
2190.131836 0.077964
2189.238281 0.070807
2188.344727 0.082691
2187.451172 0.073157
2186.557617 0.074926
2185.664063 0.082045
2184.769531 0.079650
2183.875000 0.077851
2182.980469 0.080806
2182.085938 0.079601
2181.191406 0.072458
2180.295898 0.082537
2179.400391 0.083114
2178.504883 0.081909
2177.609375 0.074178
2176.713867 0.077129
2175.817383 0.087790
2174.921875 0.078283
2174.025391 0.082417
2173.128906 0.080622
2172.231445 0.083568
2171.334961 0.076440
2170.437500 0.078202
2169.540039 0.084701
2168.642578 0.075801
2167.745117 0.084666
2166.847656 0.079321
2165.949219 0.072202
2165.050781 0.079879
2164.152344 0.078088
2163.253906 0.083986
2162.354492 0.076282
2161.456055 0.085134
2160.556641 0.077432
2159.657227 0.078598
2158.757813 0.084490
2157.858398 0.082700
2156.958008 0.079139
2156.057617 0.077942
2155.157227 0.086190
2154.256836 0.086763
2153.356445 0.078483
2152.456055 0.082597
2151.554688 0.090248
2150.653320 0.083742
2149.751953 0.087851
2148.850586 0.089012
2147.948242 0.095476
2147.045898 0.087796
2146.144531 0.091902
2145.242188 0.088349
2144.338867 0.088330
2143.436523 0.077125
2142.533203 0.082407
2141.629883 0.089452
2140.726563 0.080607
2139.823242 0.098238
2138.919922 0.088219
2138.015625 0.079969
2137.111328 0.078188
2136.207031 0.081111
2135.302734 0.081681
2134.398438 0.093414
2133.493164 0.083409
2132.588867 0.089852
2131.683594 0.082200
2130.778320 0.092749
2129.872070 0.102707
2128.966797 0.088016
2128.060547 0.086237
2127.154297 0.092671
2126.248047 0.095583
2125.341797 0.089701
2124.434570 0.097888
2123.527344 0.094351
2122.620117 0.094917
2121.712891 0.104855
2120.805664 0.084921
2119.897461 0.097785
2118.990234 0.082543
2118.082031 0.091891
2117.173828 0.099478
2116.265625 0.090097
2115.356445 0.100606
2114.447266 0.090644
2113.539063 0.101149
2112.628906 0.097620
2111.719727 0.091171
2110.810547 0.094073
2109.900391 0.089379
2108.990234 0.091697
2108.080078 0.088758
2107.169922 0.091074
2106.258789 0.089304
2105.348633 0.088701
2104.437500 0.090433
2103.526367 0.089247
2102.615234 0.085729
2101.703125 0.085128
2100.791992 0.086859
2099.879883 0.090337
2098.967773 0.084491
2098.055664 0.096707
2097.142578 0.090280
2096.230469 0.098995
2095.317383 0.087912
2094.404297 0.097207
2093.490234 0.093113
2092.577148 0.086693
2091.663086 0.095982
2090.750000 0.095380
2089.835938 0.094778
2088.920898 0.086619
2088.006836 0.088344
2087.091797 0.088907
2086.177734 0.090630
2085.262695 0.097000
2084.346680 0.090011
2083.431641 0.085347
2082.515625 0.099260
2081.600586 0.081248
2080.684570 0.100378
2079.767578 0.092236
2078.851563 0.090476
2077.934570 0.096255
2077.017578 0.103771
2076.100586 0.096794
2075.183594 0.094455
2074.266602 0.101387
2073.348633 0.093835
2072.430664 0.086866
2071.512695 0.095532
2070.594727 0.093775
2069.676758 0.093755
2068.757813 0.099521
2067.838867 0.096607
2066.919922 0.096587
2066.000977 0.109865
2065.082031 0.087873
2064.162109 0.111552
2063.242188 0.102282
2062.322266 0.095905
2061.402344 0.095885
2060.481445 0.084892
2059.561523 0.094111
2058.640625 0.090628
2057.719727 0.096379
2056.798828 0.098090
2055.876953 0.096338
2054.956055 0.106122
2054.034180 0.093990
2053.112305 0.093393
2052.189453 0.094526
2051.267578 0.096234
2050.344727 0.103127
2049.421875 0.100801
2048.499023 0.100779
2047.576172 0.085788
2046.652344 0.104765
2045.729492 0.092657
2044.805664 0.091486
2043.881836 0.096068
2042.957031 0.092597
2042.033203 0.092577
2041.108398 0.105779
2040.183594 0.098859
2039.258789 0.099987
2038.333984 0.107434
2037.408203 0.101092
2036.483398 0.095902
2035.557617 0.095881
2034.630859 0.100453
2033.705078 0.105596
2032.778320 0.093524
2031.852539 0.111286
2030.925781 0.097013
2030.818359 0.090042
2029.999023 0.094717
2029.892578 0.108371
2029.071289 0.098144
2028.965820 0.108921
2028.144531 0.091815
2028.040039 0.100873
2027.216797 0.099259
2027.113281 0.106581
2026.289063 0.105552
2026.186523 0.111714
2025.361328 0.102093
2025.260742 0.104817
2024.432617 0.103796
2024.333008 0.111093
2023.503906 0.102631
2023.406250 0.107061
2022.576172 0.111213
2022.479492 0.103603
2021.647461 0.102596
2021.551758 0.106442
2020.717773 0.102006
2020.624023 0.106991
2019.789063 0.099697
2019.696289 0.103536
2018.859375 0.101398
2018.768555 0.115523
2017.929688 0.103099
2017.840820 0.114926
2017.000000 0.097928
2016.913086 0.107470
2016.070313 0.106499
2015.984375 0.097730
2015.139648 0.101901
2015.055664 0.101137
2014.209961 0.103029
2014.126953 0.114826
2013.279297 0.105872
2013.198242 0.099380
2012.348633 0.096699
2012.269531 0.104497
2011.416992 0.098399
2011.340820 0.100478
2010.486328 0.100670
2010.411133 0.115296
2009.554688 0.106372
2009.482422 0.106140
2008.623047 0.105210
2008.552734 0.105547
2007.691406 0.097759
2007.623047 0.110087
2006.759766 0.104030
2006.692383 0.110063
2005.827148 0.107441
2005.762695 0.112319
2004.894531 0.107994
2004.833008 0.108304
2003.961914 0.107404
2003.902344 0.111130
2003.029297 0.110813
2002.971680 0.108257
2002.096680 0.106225
2002.041016 0.113930
2001.163086 0.109632
2001.110352 0.099097
2000.229492 0.103904
2000.178711 0.111602
1999.295898 0.106740
1999.248047 0.109300
1998.362305 0.105009
1998.316406 0.110984
1997.427734 0.100426
1997.384766 0.110959
1996.494141 0.104402
1996.453125 0.106384
1995.559570 0.098680
1995.521484 0.108635
1994.625000 0.114061
1994.589844 0.122259
1993.689453 0.102637
1993.657227 0.111999
1992.754883 0.108320
1992.724609 0.105153
1991.819336 0.107731
1991.792969 0.115927
1990.883789 0.100304
1990.860352 0.113061
1989.948242 0.102565
1989.926758 0.111332
1989.012695 0.112802
1988.994141 0.109604
1988.076172 0.101960
1988.061523 0.106741
1987.139648 0.112762
1987.127930 0.111258
1986.203125 0.107618
1986.194336 0.123152
1985.266602 0.111584
1985.260742 0.110642
1984.330078 0.115549
1984.327148 0.110050
1983.392578 0.106423
1983.392578 0.105488
1982.458984 0.104128
1982.455078 0.101496
1981.524414 0.106954
1981.517578 0.115079
1980.589844 0.110348
1980.580078 0.110519
1979.655273 0.110898
1979.641602 0.100295
1978.720703 0.096663
1978.703125 0.106505
1977.786133 0.115406
1977.765625 0.109313
1976.850586 0.115954
1976.826172 0.115518
1975.915039 0.116502
1975.887695 0.117191
1974.979492 0.103981
1974.948242 0.113768
1974.043945 0.108507
1974.009766 0.112046
1973.108398 0.118144
1973.070313 0.124467
1972.172852 0.114716
1972.130859 0.130662
1971.236328 0.110153
1971.190430 0.108012
1970.299805 0.116378
1970.250000 0.120992
1969.363281 0.110681
1969.310547 0.107399
1968.426758 0.101582
1968.370117 0.106245
1967.490234 0.119153
1967.428711 0.111871
1966.553711 0.112891
1966.488281 0.120884
1965.616211 0.117409
1965.546875 0.112386
1964.678711 0.113985
1964.605469 0.118572
1963.741211 0.119635
1963.664063 0.113465
1962.803711 0.108842
1962.722656 0.117390
1961.866211 0.117325
1961.780273 0.110593
1960.928711 0.119004
1960.837891 0.121851
1959.990234 0.111617
1959.895508 0.117312
1959.051758 0.109331
1958.953125 0.117286
1958.113281 0.111577
1958.010742 0.112749
1957.174805 0.112689
1957.067383 0.114415
1956.236328 0.105875
1956.124023 0.125659
1955.296875 0.109818
1955.180664 0.110420
1954.357422 0.122250
1954.237305 0.112085
1953.418945 0.114305
1953.292969 0.110934
1952.479492 0.117679
1952.349609 0.129488
1951.539063 0.119355
1951.405273 0.113136
1950.599609 0.118768
1950.460938 0.123802
1949.660156 0.118181
1949.515625 0.111397
1948.719727 0.113072
1948.571289 0.120372
1947.779297 0.105137
1947.625977 0.133279
1946.838867 0.115291
1946.680664 0.127627
1945.898438 0.114140
1945.735352 0.117480
1944.957031 0.125983
1944.789063 0.120264
1944.016602 0.106191
1943.842773 0.115742
1943.075195 0.114643
1942.896484 0.123580
1942.133789 0.108976
1941.950195 0.120182
1941.192383 0.124198
1941.003906 0.120155
1940.250977 0.114016
1940.056641 0.127426
1939.308594 0.119638
1939.110352 0.120662
1938.366211 0.124130
1938.163086 0.123441
1937.424805 0.125800
1937.215820 0.126779
1936.482422 0.121829
1936.267578 0.118898
1935.539063 0.132521
1935.319336 0.124478
1934.596680 0.116146
1934.372070 0.128374
1933.654297 0.124017
1933.422852 0.120499
1932.710938 0.123994
1932.474609 0.129437
1931.767578 0.121154
1931.526367 0.126047
1930.824219 0.123949
1930.577148 0.132179
1929.880859 0.122800
1929.627930 0.124870
1928.936523 0.125030
1928.678711 0.123162
1927.993164 0.116560
1927.728516 0.122574
1927.048828 0.112035
1926.779297 0.116951
1926.104492 0.127775
1925.829102 0.139861
1925.160156 0.118185
1924.878906 0.128084
1924.215820 0.123790
1923.928711 0.126936
1923.270508 0.128267
1922.977539 0.113490
1922.326172 0.121494
1922.026367 0.130791
1921.380859 0.116410
1921.075195 0.115674
1920.435547 0.123698
1920.124023 0.120117
1919.490234 0.134919
1919.172852 0.131819
1918.543945 0.130397
1918.220703 0.125088
1917.598633 0.119696
1917.268555 0.128968
1916.652344 0.116865
1916.316406 0.122240
1915.706055 0.116281
1915.364258 0.131141
1914.759766 0.121315
1914.411133 0.116605
1913.813477 0.126907
1913.458984 0.132755
1912.866211 0.112848
1912.505859 0.134397
1911.919922 0.121247
1911.552734 0.131579
1910.972656 0.129082
1910.598633 0.127647
1910.025391 0.129058
1909.645508 0.131519
1909.078125 0.122302
1908.691406 0.126474
1908.129883 0.125083
1907.737305 0.122546
1907.182617 0.120013
1906.782227 0.127530
1906.234375 0.121673
1905.828125 0.128614
1905.286133 0.118847
1904.873047 0.126915
1904.337891 0.122748
1903.917969 0.133564
1903.389648 0.127209
1902.962891 0.119067
1902.440430 0.121582
1902.006836 0.116259
1901.492188 0.137244
1901.051758 0.125686
1900.542969 0.133298
1900.095703 0.131774
1899.593750 0.134393
1899.139648 0.118958
1898.644531 0.132688
1898.183594 0.120598
1897.695313 0.115871
1897.226563 0.125015
1896.745117 0.122005
1896.269531 0.142207
1895.794922 0.116946
1895.312500 0.128290
1894.844727 0.125316
1894.355469 0.116600
1893.894531 0.122496
1893.398438 0.131561
1892.944336 0.124710
1892.440430 0.123206
1891.994141 0.125246
1891.482422 0.127062
1891.042969 0.115160
1890.524414 0.133689
1890.091797 0.127993
1889.566406 0.120903
1889.140625 0.117352
1888.607422 0.124756
1888.189453 0.119006
1887.648438 0.124173
1887.238281 0.120100
1886.689453 0.131349
1886.286133 0.126780
1885.730469 0.126332
1885.334961 0.128431
1884.770508 0.130734
1884.382813 0.117799
1883.811523 0.122950
1883.430664 0.123359
1882.851563 0.127905
1882.477539 0.125010
1881.891602 0.133411
1881.525391 0.128334
1880.930664 0.122865
1880.572266 0.136678
1879.970703 0.133349
1879.619141 0.131632
1879.009766 0.125573
1878.666016 0.128261
1878.048828 0.137159
1877.712891 0.127679
1877.086914 0.132150
1876.759766 0.130442
1876.125977 0.117194
1875.805664 0.127074
1875.164063 0.139826
1874.852539 0.135408
1874.202148 0.129295
1873.898438 0.122011
1873.240234 0.127055
1872.943359 0.140927
1872.277344 0.129235
1871.989258 0.128091
1871.315430 0.122027
1871.035156 0.128067
1870.352539 0.123654
1870.080078 0.126929
1869.389648 0.136319
1869.125000 0.145829
1868.425781 0.134632
1868.169922 0.139123
1867.462891 0.121361
1867.214844 0.127969
1866.499023 0.129054
1866.258789 0.130170
1865.535156 0.133435
1865.303711 0.130145
1864.570313 0.127340
1864.347656 0.135125
1863.606445 0.135026
1863.391602 0.136767
1862.641602 0.133341
1862.435547 0.133962
1861.676758 0.139369
1861.479492 0.127823
1860.711914 0.127243
1860.522461 0.139888
1859.746094 0.132774
1859.565430 0.137652
1858.781250 0.126639
1858.608398 0.134317
1857.815430 0.129946
1857.651367 0.140890
1856.849609 0.137695
1856.694336 0.140306
1855.882813 0.130452
1855.736328 0.126521
1854.916992 0.135977
1854.779297 0.135291
1853.950195 0.129292
1853.821289 0.133609
1852.983398 0.131486
1852.863281 0.138525
1852.015625 0.133125
1851.905273 0.138492
1851.048828 0.142527
1850.946289 0.134064
1850.081055 0.137510
1849.988281 0.140075
1849.113281 0.135266
1849.029297 0.135099
1848.145508 0.141337
1848.070313 0.133969
1847.176758 0.142972
1847.111328 0.139427
1846.208008 0.136296
1846.151367 0.141040
1845.239258 0.133500
1845.192383 0.136618
1844.270508 0.141782
1844.232422 0.138779
1843.301758 0.136771
1843.272461 0.146973
1842.332031 0.129547
1842.312500 0.146390
1841.362305 0.141146
1841.352539 0.147451
1840.392578 0.142226
1840.391602 0.141936
1839.430664 0.149944
1839.422852 0.152860
1838.470703 0.141617
1838.452148 0.154467
1837.508789 0.143802
1837.481445 0.150049
1836.547852 0.153728
1836.510742 0.145086
1835.586914 0.164203
1835.540039 0.154357
1834.625000 0.143719
1834.568359 0.149942
1833.663086 0.165245
1833.597656 0.159207
1832.701172 0.143663
1832.625000 0.152605
1831.739258 0.150817
1831.653320 0.149835
1830.777344 0.152997
1830.681641 0.146519
1829.814453 0.161251
1829.708984 0.147030
1828.851563 0.143000
1828.736328 0.148635
1827.888672 0.154564
1827.763672 0.152970
1826.925781 0.158949
1826.790039 0.162765
1825.962891 0.146779
1825.817383 0.145252
1824.999023 0.171025
1824.843750 0.159957
1824.035156 0.149480
1823.869141 0.145728
1823.071289 0.147245
1822.895508 0.154969
1822.107422 0.138945
1821.920898 0.148931
1821.143555 0.158212
1820.947266 0.151622
1820.178711 0.146056
1819.971680 0.163582
1819.214844 0.146028
1818.997070 0.153730
1818.250000 0.151509
1818.021484 0.158053
1817.285156 0.141013
1817.046875 0.168913
1816.319336 0.145391
1816.070313 0.156888
1815.354492 0.145363
1815.094727 0.143779
1814.388672 0.137077
1814.119141 0.157357
1813.422852 0.149709
1813.142578 0.153508
1812.457031 0.139225
1812.166016 0.160002
1811.491211 0.144699
1811.188477 0.153434
1810.525391 0.142470
1810.211914 0.152853
1809.558594 0.149042
1809.234375 0.143027
1808.591797 0.149013
1808.256836 0.146798
1807.625000 0.146785
1807.279297 0.148937
1806.658203 0.149504
1806.300781 0.145097
1805.690430 0.148376
1805.322266 0.147778
1804.723633 0.146149
1804.343750 0.152631
1803.755859 0.147768
1803.365234 0.150965
1802.788086 0.155428
1802.386719 0.154186
1801.820313 0.147710
1801.407227 0.154148
1800.851563 0.151524
1800.427734 0.149227
1799.883789 0.151494
1799.448242 0.152988
1798.915039 0.154757
1798.467773 0.145358
1797.946289 0.149240
1797.488281 0.150203
1796.977539 0.153050
1796.507813 0.140408
1796.007813 0.156311
1795.527344 0.153381
1795.039063 0.143120
1794.545898 0.152802
1794.069336 0.154605
1793.564453 0.149514
1793.099609 0.158411
1792.583008 0.153269
1792.129883 0.161120
1791.601563 0.154314
1791.160156 0.142459
1790.620117 0.151570
1790.189453 0.153935
1789.637695 0.166145
1789.218750 0.161025
1788.655273 0.154201
1788.248047 0.157707
1787.672852 0.159032
1787.277344 0.160961
1786.690430 0.141687
1786.306641 0.165308
1785.707031 0.152466
1785.334961 0.155972
1784.723633 0.157293
1784.364258 0.159771
1783.740234 0.157795
1783.392578 0.162475
1782.756836 0.145330
1782.420898 0.162989
1781.772461 0.156097
1781.448242 0.160770
1780.788086 0.167398
1780.476563 0.167845
1779.803711 0.158179
1779.503906 0.162346
1778.819336 0.158680
1778.531250 0.167232
1777.833984 0.162958
1777.558594 0.160096
1776.848633 0.161839
1776.585938 0.172629
1775.863281 0.159102
1775.612305 0.153478
1774.877930 0.159063
1774.638672 0.167099
1773.891602 0.169805
1773.666016 0.167612
1772.905273 0.163834
1772.691406 0.182317
1771.918945 0.162177
1771.717773 0.163179
1770.931641 0.164784
1770.744141 0.163753
1769.945313 0.169661
1769.769531 0.173945
1768.958008 0.170718
1768.794922 0.162057
1767.970703 0.178318
1767.820313 0.171167
1766.982422 0.165198
1766.845703 0.169510
1765.995117 0.170071
1765.870117 0.163550
1765.006836 0.174397
1764.894531 0.172115
1764.018555 0.167278
1763.919922 0.166157
1763.029297 0.166155
1762.944336 0.162890
1762.041016 0.181373
1761.967773 0.175211
1761.051758 0.178069
1760.992188 0.158511
1760.062500 0.173678
1760.015625 0.166529
1759.072266 0.169289
1759.039063 0.169710
1758.083008 0.175241
1758.062500 0.178258
1757.092773 0.168133
1757.085938 0.170162
1756.108398 0.180611
1756.101563 0.172802
1755.131836 0.176768
1755.111328 0.160419
1754.154297 0.186521
1754.120117 0.171106
1753.176758 0.174522
1753.128906 0.175890
1752.198242 0.175574
1751.220703 0.186952
1750.242188 0.173330
1749.263672 0.184704
1748.285156 0.178149
1747.306641 0.166167
1746.327148 0.165048
1745.348633 0.177499
1744.369141 0.178549
1743.389648 0.168746
1742.409180 0.168170
1741.429688 0.187119
1740.449219 0.175151
1739.468750 0.179996
1738.488281 0.173997
1737.507813 0.168000
1736.526367 0.171218
1735.544922 0.185268
1734.563477 0.168982
1733.582031 0.175446
1732.600586 0.179742
1731.618164 0.169962
1730.636719 0.173175
1729.654297 0.180715
1728.671875 0.192038
1727.688477 0.183346
1726.706055 0.191961
1725.722656 0.173541
1724.739258 0.170803
1723.755859 0.176172
1722.771484 0.179378
1721.788086 0.174480
1720.803711 0.190647
1719.819336 0.190069
1718.834961 0.186791
1717.850586 0.193230
1716.865234 0.175383
1715.879883 0.178045
1714.894531 0.181785
1713.909180 0.184444
1712.923828 0.181711
1711.937500 0.178439
1710.951172 0.192955
1709.964844 0.183217
1708.978516 0.198803
1707.991211 0.194992
1707.004883 0.192798
1706.017578 0.180375
1705.030273 0.185183
1704.042969 0.194833
1703.054688 0.192641
1702.066406 0.192602
1701.078125 0.203858
1700.089844 0.188221
1699.101563 0.189796
1698.113281 0.201583
1697.124023 0.194555
1696.134766 0.192366
1695.145508 0.195013
1694.155273 0.208938
1693.166016 0.198692
1692.175781 0.191672
1691.185547 0.185191
1690.195313 0.200180
1689.205078 0.185652
1688.213867 0.182932
1687.222656 0.191476
1686.231445 0.194118
1685.240234 0.205873
1684.249023 0.199398
1683.256836 0.197750
1682.264648 0.197709
1681.272461 0.200347
1680.280273 0.194950
1679.287109 0.194375
1678.294922 0.196476
1677.301758 0.193224
1676.308594 0.193185
1675.315430 0.187260
1674.321289 0.188826
1673.327148 0.204296
1672.333008 0.194095
1671.338867 0.204212
1670.344727 0.206843
1669.349609 0.191303
1668.355469 0.196072
1667.360352 0.206715
1666.365234 0.211479
1665.369141 0.205028
1664.374023 0.204452
1663.377930 0.206544
1662.381836 0.194229
1661.384766 0.201658
1660.388672 0.207483
1659.391602 0.217039
1658.395508 0.207931
1657.397461 0.217482
1656.400391 0.210509
1655.403320 0.213130
1654.405273 0.203497
1653.407227 0.205053
1652.409180 0.211400
1651.411133 0.208162
1650.412109 0.211313
1649.413086 0.198497
1648.414063 0.217078
1647.415039 0.215437
1646.416016 0.221774
1645.416016 0.220665
1644.416016 0.214240
1643.416016 0.214195
1642.416016 0.211494
1641.415039 0.215169
1640.415039 0.215124
1639.414063 0.211893
1638.413086 0.226185
1637.411133 0.228792
1636.410156 0.222906
1635.408203 0.214901
1634.406250 0.227588
1633.404297 0.219585
1632.402344 0.232796
1631.399414 0.226916
1630.396484 0.219978
1629.393555 0.242720
1628.390625 0.232602
1627.387695 0.235732
1626.383789 0.237802
1625.379883 0.234575
1624.375977 0.237173
1623.372070 0.242946
1622.367188 0.241837
1621.362305 0.225914
1620.357422 0.240149
1619.352539 0.224762
1618.347656 0.238462
1617.341797 0.244756
1616.335938 0.249990
1615.330078 0.242540
1614.324219 0.240376
1613.318359 0.241382
1612.311523 0.239220
1611.304688 0.245505
1610.297852 0.242287
1609.291016 0.250680
1608.283203 0.250100
1607.275391 0.251102
1606.267578 0.255269
1605.259766 0.262598
1604.251953 0.254108
1603.243164 0.248256
1602.234375 0.248731
1601.225586 0.241303
1600.216797 0.247573
1599.207031 0.245941
1598.198242 0.250102
1597.188477 0.247417
1596.178711 0.251050
1595.167969 0.255206
1594.158203 0.243053
1593.147461 0.247209
1592.136719 0.251890
1591.125977 0.251312
1590.114258 0.243374
1589.103516 0.244374
1588.091797 0.241695
1587.080078 0.242170
1586.067383 0.240543
1585.055664 0.253095
1584.042969 0.249891
1583.030273 0.236717
1582.017578 0.241915
1581.003906 0.232944
1579.991211 0.241812
1578.977539 0.243335
1577.963867 0.231224
1576.949219 0.226982
1575.935547 0.238464
1574.920898 0.227934
1573.906250 0.234172
1572.891602 0.229932
1571.876953 0.237739
1570.861328 0.239782
1569.845703 0.242872
1568.830078 0.239158
1567.814453 0.237014
1566.797852 0.231733
1565.782227 0.230638
1564.765625 0.230066
1563.749023 0.231586
1562.731445 0.227356
1561.714844 0.217901
1560.697266 0.241365
1559.679688 0.232957
1558.662109 0.229252
1557.643555 0.227637
1556.625000 0.228632
1555.607422 0.237456
1554.587891 0.225926
1553.569336 0.227443
1552.549805 0.232611
1551.531250 0.219004
1550.511719 0.225734
1549.491211 0.219953
1548.471680 0.221991
1547.451172 0.215171
1546.430664 0.216687
1545.410156 0.227578
1544.389648 0.221281
1543.368164 0.224357
1542.346680 0.231075
1541.325195 0.222181
1540.303711 0.213289
1539.282227 0.221566
1538.259766 0.232438
1537.237305 0.228230
1536.214844 0.219345
1535.191406 0.219298
1534.168945 0.226005
1533.145508 0.240502
1532.122070 0.227986
1531.098633 0.226380
1530.074219 0.219064
1529.050781 0.216422
1528.026367 0.231943
1527.000977 0.223074
1525.976563 0.225101
1524.951172 0.224534
1523.926758 0.216191
1522.901367 0.228066
1521.875000 0.238382
1520.849609 0.223824
1519.823242 0.235172
1518.796875 0.220621
1517.770508 0.231447
1516.743164 0.234503
1515.716797 0.229795
1514.689453 0.241647
1513.662109 0.235904
1512.634766 0.232233
1511.606445 0.235803
1510.578125 0.229031
1509.549805 0.243972
1508.521484 0.233584
1507.493164 0.240251
1506.463867 0.229351
1505.434570 0.253059
1504.405273 0.236998
1503.375977 0.237979
1502.345703 0.248250
1501.315430 0.228589
1500.285156 0.253818
1499.254883 0.235711
1498.223633 0.235145
1497.193359 0.236641
1496.162109 0.243291
1495.130859 0.239116
1494.098633 0.237519
1493.067383 0.241073
1492.035156 0.252351
1491.002930 0.246118
1489.969727 0.252757
1488.937500 0.247041
1487.904297 0.246988
1486.871094 0.223270
1485.837891 0.237109
1484.803711 0.237058
1483.770508 0.243176
1482.736328 0.232329
1481.702148 0.235362
1480.666992 0.238394
1479.632813 0.245020
1478.597656 0.242399
1477.562500 0.241834
1476.527344 0.258721
1475.491211 0.246348
1474.455078 0.266306
1473.418945 0.241624
1472.382813 0.251317
1471.346680 0.242032
1470.309570 0.237366
1469.272461 0.252691
1468.235352 0.249049
1467.198242 0.237211
1466.160156 0.242282
1465.122070 0.235060
1464.083984 0.255489
1463.045898 0.246731
1462.006836 0.237977
1460.968750 0.235879
1459.929688 0.252709
1458.889648 0.251120
1457.850586 0.256690
1456.810547 0.251522
1455.771484 0.247378
1454.730469 0.255500
1453.690430 0.246249
1452.649414 0.240577
1451.609375 0.240524
1450.568359 0.265489
1449.526367 0.259306
1448.485352 0.255167
1447.443359 0.255111
1446.401367 0.266278
1445.359375 0.261630
1444.316406 0.261063
1443.274414 0.266613
1442.231445 0.268084
1441.188477 0.281784
1440.144531 0.264910
1439.101563 0.265871
1438.057617 0.267341
1437.013672 0.280010
1435.968750 0.289111
1434.924805 0.279379
1433.879883 0.292037
1432.834961 0.289938
1431.790039 0.285807
1430.744141 0.316759
1429.698242 0.315673
1428.653320 0.312046
1427.606445 0.320616
1426.560547 0.337817
1425.513672 0.330633
1424.466797 0.327514
1423.419922 0.329472
1422.373047 0.318741
1421.325195 0.318164
1420.277344 0.304396
1419.229492 0.308894
1418.181641 0.307305
1417.132813 0.297098
1416.084961 0.316801
1415.036133 0.292406
1413.986328 0.302475
1412.937500 0.314059
1411.887695 0.310445
1410.837891 0.317972
1409.788086 0.305246
1408.738281 0.317326
1407.687500 0.294486
1406.636719 0.324774
1405.585938 0.303460
1404.534180 0.307944
1403.483398 0.304337
1402.431641 0.298205
1401.379883 0.296623
1400.327148 0.294032
1399.275391 0.293462
1398.222656 0.295417
1397.169922 0.297371
1396.117188 0.308410
1395.063477 0.291688
1394.009766 0.291119
1392.956055 0.295595
1391.902344 0.299060
1390.848633 0.300002
1389.793945 0.317579
1388.739258 0.308437
1387.684570 0.287206
1386.628906 0.294699
1385.574219 0.329889
1384.518555 0.324780
1383.462891 0.316150
1382.406250 0.315073
1381.350586 0.311984
1380.293945 0.332038
1379.237305 0.340012
1378.179688 0.344965
1377.123047 0.345894
1376.065430 0.362405
1375.007813 0.364334
1373.949219 0.361741
1372.891602 0.354628
1371.833008 0.368109
1370.774414 0.354973
1369.715820 0.366439
1368.656250 0.338253
1367.596680 0.320617
1366.537109 0.314024
1365.477539 0.307936
1364.417969 0.303856
1363.357422 0.299276
1362.296875 0.294198
1361.236328 0.284612
1360.174805 0.275030
1359.113281 0.290996
1358.052734 0.288427
1356.990234 0.296373
1355.928711 0.292803
1354.866211 0.273221
1353.803711 0.283667
1352.741211 0.299109
1351.678711 0.290541
1350.615234 0.289476
1349.551758 0.295909
1348.488281 0.302339
1347.424805 0.293778
1346.360352 0.300206
1345.295898 0.313622
1344.231445 0.306562
1343.166992 0.300004
1342.101563 0.289955
1341.036133 0.283903
1339.970703 0.283839
1338.905273 0.282279
1337.838867 0.316121
1336.772461 0.309570
1335.706055 0.300529
1334.639648 0.311424
1333.572266 0.321317
1332.504883 0.305805
1331.437500 0.332127
1330.370117 0.337528
1329.302734 0.323018
1328.234375 0.340362
1327.166016 0.332325
1326.096680 0.333742
1325.028320 0.351072
1323.958984 0.342044
1322.889648 0.344452
1321.820313 0.317043
1320.750000 0.323430
1319.679688 0.317396
1318.609375 0.333215
1317.539063 0.327182
1316.468750 0.322641
1315.397461 0.313139
1314.326172 0.312076
1313.254883 0.314981
1312.182617 0.289618
1311.142578 0.294015
1311.110352 0.304303
1310.069336 0.289487
1310.038086 0.304798
1308.997070 0.294377
1308.965820 0.295824
1307.923828 0.298770
1307.892578 0.289826
1306.851563 0.295730
1306.820313 0.292747
1305.778320 0.278329
1305.747070 0.290218
1304.704102 0.278761
1304.672852 0.289176
1303.630859 0.276222
1303.599609 0.272786
1302.557617 0.256363
1302.525391 0.281152
1301.483398 0.283024
1301.451172 0.278132
1300.409180 0.280981
1300.376953 0.285504
1299.334961 0.282895
1299.301758 0.287927
1298.259766 0.276898
1298.227539 0.282434
1297.185547 0.283755
1297.152344 0.282877
1296.110352 0.264532
1296.076172 0.270346
1295.035156 0.283270
1295.000977 0.282144
1293.959961 0.282724
1293.924805 0.297888
1292.883789 0.284156
1292.848633 0.278558
1291.808594 0.284598
1291.772461 0.286889
1290.732422 0.280595
1290.695313 0.280899
1289.656250 0.288940
1289.618164 0.300578
1288.580078 0.312098
1288.541016 0.296068
1287.502930 0.301179
1287.463867 0.287614
1286.426758 0.299150
1286.386719 0.304811
1285.349609 0.294653
1285.308594 0.300796
1284.272461 0.303482
1284.230469 0.289389
1283.195313 0.289612
1283.152344 0.293266
1282.118164 0.287093
1282.073242 0.296648
1281.040039 0.301343
1280.994141 0.282786
1279.961914 0.288960
1279.915039 0.265974
1278.883789 0.268694
1278.835938 0.285611
1277.805664 0.287869
1277.755859 0.269791
1276.727539 0.271553
1276.676758 0.260377
1275.648438 0.269532
1275.596680 0.275573
1274.569336 0.270468
1274.515625 0.269114
1273.490234 0.273866
1273.435547 0.248394
1272.411133 0.265936
1272.354492 0.254238
1271.332031 0.265887
1271.273438 0.261062
1270.251953 0.265838
1270.191406 0.261985
1269.171875 0.259883
1269.110352 0.256028
1268.091797 0.256882
1268.028320 0.267269
1267.011719 0.254375
1266.946289 0.260823
1265.931641 0.255804
1265.864258 0.269111
1264.850586 0.264118
1264.781250 0.257266
1263.769531 0.261119
1263.698242 0.267515
1262.688477 0.249270
1262.615234 0.259601
1261.607422 0.274786
1261.532227 0.250219
1260.526367 0.269329
1260.448242 0.267820
1259.444336 0.265348
1259.364258 0.248633
1258.362305 0.256946
1258.280273 0.249556
1257.280273 0.270161
1257.196289 0.254400
1256.198242 0.255378
1256.111328 0.238170
1255.115234 0.255821
1255.026367 0.259182
1254.033203 0.258228
1253.941406 0.262062
1252.950195 0.254744
1252.856445 0.266898
1251.867188 0.252734
1251.770508 0.258024
1250.783203 0.256612
1250.684570 0.253069
1249.700195 0.260979
1249.598633 0.256926
1248.616211 0.246707
1248.511719 0.245613
1247.532227 0.250584
1247.425781 0.242621
1246.448242 0.263774
1246.338867 0.265061
1245.364258 0.258823
1245.250977 0.268911
1244.279297 0.272988
1244.164063 0.253207
1243.195313 0.269996
1243.076172 0.243374
1242.110352 0.269946
1241.988281 0.263838
1241.024414 0.265977
1240.900391 0.253031
1239.939453 0.267396
1239.812500 0.253460
1238.853516 0.268325
1238.723633 0.252913
1237.768555 0.254077
1237.634766 0.257248
1236.682617 0.259414
1236.544922 0.251820
1235.595703 0.273556
1235.456055 0.245418
1234.509766 0.264209
1234.366211 0.276580
1233.422852 0.250462
1233.276367 0.255058
1232.336914 0.263620
1232.186523 0.273038
1231.250000 0.265526
1231.095703 0.254452
1230.162109 0.266454
1230.004883 0.256829
1229.075195 0.253205
1228.914063 0.245076
1227.987305 0.259511
1227.823242 0.256709
1226.899414 0.256041
1226.731445 0.253240
1225.811523 0.257947
1225.639648 0.241496
1224.723633 0.252036
1224.547852 0.260424
1223.634766 0.251500
1223.456055 0.254036
1222.546875 0.266100
1222.363281 0.252517
1221.458008 0.249940
1221.270508 0.245648
1220.368164 0.255749
1220.177734 0.258722
1219.279297 0.255213
1219.084961 0.250882
1218.189453 0.257604
1217.991211 0.238671
1217.100586 0.272188
1216.897461 0.256596
1216.010742 0.261895
1215.803711 0.245847
1214.919922 0.264283
1214.708984 0.261333
1213.830078 0.272032
1213.614258 0.256416
1212.739258 0.268569
1212.519531 0.269465
1211.648438 0.271441
1211.424805 0.275712
1210.557617 0.293802
1210.329102 0.292633
1209.466797 0.298617
1209.234375 0.278008
1208.375977 0.284923
1208.138672 0.289585
1207.284180 0.284868
1207.041992 0.271089
1206.192383 0.289682
1205.946289 0.273934
1205.100586 0.297415
1204.849609 0.285503
1204.007813 0.292491
1203.752930 0.290766
1202.916016 0.284163
1202.655273 0.267927
1201.823242 0.289946
1201.558594 0.282395
1200.730469 0.277244
1200.460938 0.285234
1199.637695 0.285944
1199.362305 0.282746
1198.543945 0.279568
1198.264648 0.292360
1197.451172 0.279514
1197.166016 0.295679
1196.357422 0.298415
1196.067383 0.300447
1195.263672 0.279406
1194.968750 0.300860
1194.168945 0.298785
1193.870117 0.295469
1193.075195 0.296299
1192.770508 0.296850
1191.980469 0.312754
1191.670898 0.305964
1190.885742 0.337942
1190.570313 0.302025
1189.791016 0.306322
1189.470703 0.311616
1188.696289 0.314513
1188.370117 0.299467
1187.600586 0.298439
1187.269531 0.293602
1186.504883 0.306143
1186.167969 0.280497
1185.409180 0.288136
1185.067383 0.267881
1184.313477 0.282260
1183.965820 0.284224
1183.216797 0.279296
1182.864258 0.262930
1182.121094 0.271000
1181.761719 0.253703
1181.024414 0.252529
1180.659180 0.268591
1179.927734 0.248118
1179.556641 0.244423
1178.830078 0.257760
1178.454102 0.240027
1177.733398 0.238333
1177.351563 0.239970
1176.635742 0.247005
1176.248047 0.237504
1175.538086 0.237756
1175.144531 0.237447
1174.440430 0.245940
1174.040039 0.240280
1173.341797 0.233307
1172.936523 0.224818
1172.243164 0.241972
1171.832031 0.243534
1171.145508 0.229829
1170.727539 0.226635
1170.045898 0.225430
1169.622070 0.225619
1168.947266 0.230706
1168.517578 0.228932
1167.848633 0.238881
1167.412109 0.230320
1166.749023 0.241252
1166.306641 0.222092
1165.649414 0.232987
1165.200195 0.224923
1164.549805 0.221343
1164.093750 0.223428
1163.449219 0.235312
1162.987305 0.223374
1162.348633 0.226570
1161.880859 0.232446
1161.249023 0.238600
1160.773438 0.229029
1160.147461 0.225032
1159.666016 0.228494
1159.046875 0.222091
1158.558594 0.213562
1157.946289 0.224460
1157.451172 0.232703
1156.844727 0.235034
1156.342773 0.227370
1155.743164 0.234987
1155.234375 0.219643
1154.641602 0.218056
1154.125977 0.212878
1153.539063 0.219942
1153.017578 0.215703
1152.436523 0.237259
1151.908203 0.225235
1151.334961 0.233355
1150.798828 0.228535
1150.231445 0.221740
1149.689453 0.217942
1149.128906 0.217841
1148.579102 0.227946
1148.026367 0.219243
1147.468750 0.219273
1146.922852 0.203302
1146.358398 0.212998
1145.819336 0.233125
1145.248047 0.227303
1144.715820 0.222965
1144.136719 0.230118
1143.611328 0.223884
1143.025391 0.216192
1142.506836 0.224321
1141.914063 0.226660
1141.403320 0.230052
1140.801758 0.233776
1140.297852 0.222307
1139.689453 0.221771
1139.193359 0.236696
1138.577148 0.219806
1138.088867 0.219814
1137.464844 0.225963
1136.983398 0.227464
1136.351563 0.229729
1135.877930 0.227900
1135.239258 0.221079
1134.771484 0.227374
1134.125000 0.216252
1133.666016 0.233096
1133.011719 0.224313
1132.559570 0.225842
1131.897461 0.221872
1131.453125 0.235405
1130.783203 0.225635
1130.346680 0.228633
1129.668945 0.226534
1129.240234 0.228108
1128.553711 0.215989
1128.132813 0.219900
1127.439453 0.231191
1127.025391 0.230417
1126.324219 0.223033
1125.917969 0.214532
1125.208008 0.209638
1124.810547 0.215449
1124.092773 0.231498
1123.702148 0.223562
1122.976563 0.226204
1122.594727 0.224476
1121.859375 0.219959
1121.486328 0.225870
1120.743164 0.228473
1120.377930 0.223427
1119.625977 0.217473
1119.268555 0.223382
1118.508789 0.226459
1118.159180 0.223338
1117.391602 0.226879
1117.050781 0.234793
1116.273438 0.224446
1115.940430 0.228997
1115.155273 0.229145
1114.831055 0.231346
1114.037109 0.230515
1113.721680 0.219327
1112.918945 0.222381
1112.611328 0.225986
1111.799805 0.222326
1111.500977 0.220675
1110.680664 0.216573
1110.389648 0.223023
1109.561523 0.207023
1109.279297 0.221064
1108.441406 0.211245
1108.167969 0.218149
1107.321289 0.208345
1107.056641 0.214757
1106.201172 0.220156
1105.945313 0.217105
1105.081055 0.207769
1104.833984 0.217061
1103.959961 0.204872
1103.721680 0.212715
1102.838867 0.211934
1102.609375 0.212194
1101.717773 0.198135
1101.497070 0.212151
1100.595703 0.192874
1100.384766 0.205898
1099.473633 0.215094
1099.271484 0.221618
1098.351563 0.208883
1098.158203 0.217275
1097.229492 0.195099
1097.044922 0.208160
1096.106445 0.203573
1095.931641 0.212414
1094.983398 0.196896
1094.818359 0.205212
1093.860352 0.206311
1093.704102 0.194674
1092.737305 0.194433
1092.589844 0.210377
1091.613281 0.199588
1091.475586 0.211765
1090.489258 0.208523
1090.360352 0.203615
1089.364258 0.198071
1089.246094 0.191655
1088.240234 0.208892
1088.130859 0.204009
1087.115234 0.191358
1087.015625 0.198725
1085.989258 0.209261
1085.900391 0.195350
1084.864258 0.190791
1084.784180 0.202932
1083.738281 0.189799
1083.667969 0.195270
1082.612305 0.203913
1082.551758 0.207611
1081.486328 0.206694
1081.435547 0.201379
1080.359375 0.195791
1080.318359 0.209430
1079.232422 0.200931
1079.202148 0.207008
1078.105469 0.208897
1078.084961 0.202683
1076.977539 0.192817
1076.966797 0.191226
1075.849609 0.197010
1075.849609 0.211161
1074.731445 0.209212
1074.721680 0.209692
1073.613281 0.200681
1073.593750 0.199190
1072.495117 0.185560
1072.464844 0.206279
1071.376953 0.193406
1071.335938 0.201522
1070.257813 0.200968
1070.207031 0.201472
1069.138672 0.191427
1069.077148 0.189186
1068.019531 0.197086
1067.948242 0.200901
1066.900391 0.197521
1066.817383 0.197087
1065.781250 0.198904
1065.687500 0.196568
1064.661133 0.202661
1064.556641 0.194168
1063.541016 0.200246
1063.425781 0.198349
1062.419922 0.194038
1062.294922 0.202529
1061.299805 0.198741
1061.163086 0.200599
1060.178711 0.196329
1060.032227 0.197261
1059.057617 0.197711
1058.899414 0.196742
1057.936523 0.199093
1057.767578 0.197162
1056.815430 0.203317
1056.634766 0.194296
1055.693359 0.204697
1055.501953 0.196124
1054.571289 0.192337
1054.369141 0.197482
1053.449219 0.215506
1053.235352 0.197901
1052.327148 0.210726
1052.101563 0.196914
1051.204102 0.211156
1050.967773 0.202489
1050.081055 0.212059
1049.833984 0.201969
1048.958008 0.207756
1048.699219 0.213630
1047.834961 0.207240
1047.564453 0.195778
1046.710938 0.217604
1046.428711 0.206498
1045.586914 0.203371
1045.293945 0.193806
1044.462891 0.210894
1044.158203 0.208734
1043.338867 0.219360
1043.021484 0.204938
1042.213867 0.218370
1041.885742 0.211435
1041.089844 0.215017
1040.749023 0.213719
1039.964844 0.215444
1039.612305 0.202444
1038.838867 0.217289
1038.474609 0.212209
1037.713867 0.197409
1037.337891 0.226641
1036.587891 0.214366
1036.200195 0.211166
1035.461914 0.216210
1035.061523 0.214382
1034.335938 0.214277
1033.923828 0.211526
1033.209961 0.225558
1032.785156 0.210071
1032.083008 0.217962
1031.646484 0.212818
1030.956055 0.223577
1030.506836 0.217896
1029.829102 0.223059
1029.367188 0.213643
1028.701172 0.231971
1028.227539 0.209391
1027.574219 0.222024
1027.087891 0.217263
1026.446289 0.225748
1025.947266 0.223267
1025.318359 0.220518
1024.806641 0.215288
1024.189453 0.213876
1023.666016 0.219892
1023.061523 0.232672
1022.524414 0.215178
1021.932617 0.223205
1021.382813 0.215588
1020.803711 0.221275
1020.241211 0.212274
1019.674805 0.239116
1019.098633 0.212220
1018.544922 0.222124
1017.957031 0.223797
1017.415039 0.217843
1016.813477 0.220484
1016.285156 0.217327
1015.670898 0.203686
1015.155273 0.221045
1014.527344 0.209677
1014.024414 0.211594
1013.383789 0.219384
1012.894531 0.209669
1012.240234 0.221651
1011.763672 0.218556
1011.095703 0.221594
1010.631836 0.218510
1009.951172 0.215034
1009.500977 0.221753
1008.806641 0.217765
1008.369141 0.240495
1007.662109 0.221886
1007.237305 0.227296
1006.516602 0.221829
1006.105469 0.233821
1005.371094 0.213884
1004.972656 0.219220
1004.224609 0.229600
1003.840820 0.229969
1003.079102 0.223975
1002.708008 0.211621
1001.932617 0.231335
1001.575195 0.225181
1000.785156 0.225250
1000.441406 0.224196
999.638672 0.221485
999.307617 0.218990
998.491211 0.211236
998.173828 0.222695
997.342773 0.211644
997.040039 0.220773
996.195313 0.207422
995.906250 0.225413
995.046875 0.215700
994.771484 0.218338
993.898438 0.226287
993.636719 0.221102
992.749023 0.204484
992.501953 0.209816
991.599609 0.211831
991.367188 0.205089
990.450195 0.204378
990.231445 0.216281
989.300781 0.210796
989.095703 0.219044
987.959961 0.210575
986.824219 0.217548
985.687500 0.230599
984.550781 0.229615
983.414063 0.219281
982.277344 0.215962
981.139648 0.221992
980.001953 0.219609
978.864258 0.221431
977.726563 0.231660
976.587891 0.210130
975.449219 0.230628
974.310547 0.227312
973.171875 0.232397
972.032227 0.227215
970.893555 0.219237
969.752930 0.229917
968.613281 0.232200
967.473633 0.231218
966.333008 0.234898
965.192383 0.241837
964.050781 0.228276
962.910156 0.238474
961.768555 0.232370
960.626953 0.250012
959.485352 0.238788
958.342773 0.228964
957.200195 0.230311
956.057617 0.233519
954.915039 0.223702
953.771484 0.230629
952.628906 0.229650
951.485352 0.210545
950.340820 0.236523
949.197266 0.209991
948.052734 0.226203
946.908203 0.206651
945.762695 0.218214
944.618164 0.202849
943.472656 0.223690
942.327148 0.207402
941.181641 0.220811
940.035156 0.203140
938.888672 0.222571
937.742188 0.210470
936.595703 0.218304
935.448242 0.213160
934.301758 0.227940
933.154297 0.225575
932.005859 0.230621
930.858398 0.221312
929.709961 0.235151
928.561523 0.230473
927.413086 0.219319
926.263672 0.239163
925.114258 0.244662
923.964844 0.252470
922.815430 0.245482
921.665039 0.245891
920.514648 0.248149
919.364258 0.240703
918.213867 0.254047
917.062500 0.249374
915.911133 0.229005
914.759766 0.234034
913.608398 0.243675
912.456055 0.237624
911.303711 0.241264
910.151367 0.248130
908.999023 0.242082
907.845703 0.246640
906.692383 0.248891
905.539063 0.263122
904.385742 0.268594
903.231445 0.260245
902.077148 0.268478
900.922852 0.265197
899.768555 0.283092
898.613281 0.259560
897.458008 0.266406
896.302734 0.268188
895.146484 0.261231
893.991211 0.280947
892.834961 0.273071
891.678711 0.299210
890.521484 0.300524
889.364258 0.313322
888.207031 0.324737
887.049805 0.353139
885.892578 0.349389
884.734375 0.370428
883.576172 0.369889
882.417969 0.359715
881.258789 0.352297
880.099609 0.355889
878.940430 0.329218
877.781250 0.340149
876.621094 0.328617
875.461914 0.314340
874.301758 0.289991
873.140625 0.288554
871.980469 0.278875
870.819336 0.276525
869.658203 0.259072
868.496094 0.258100
867.334961 0.241573
866.172852 0.252041
865.010742 0.251071
863.847656 0.251931
862.685547 0.243648
861.522461 0.239939
860.359375 0.249939
859.195313 0.239377
858.031250 0.251657
856.867188 0.241099
855.703125 0.241960
854.539063 0.235517
853.374023 0.258282
852.208984 0.246820
851.043945 0.242204
849.877930 0.252640
848.711914 0.246202
847.545898 0.263013
846.379883 0.247917
845.212891 0.270644
844.046875 0.281518
842.879883 0.269159
841.711914 0.275020
840.544922 0.293169
839.376953 0.313130
838.208008 0.330353
837.040039 0.364855
835.871094 0.387062
834.702148 0.423355
833.533203 0.520099
832.364258 0.599528
831.194336 0.733908
830.024414 0.839606
828.854492 0.914824
827.683594 1.000000
826.513672 0.945750
825.342773 0.901511
824.170898 0.786039
823.000000 0.716898
821.828125 0.618302
820.656250 0.560567
819.483398 0.481547
818.311523 0.439734
817.138672 0.390688
815.965820 0.368851
814.791992 0.355632
813.619141 0.325207
812.445313 0.312908
811.270508 0.320083
810.096680 0.307339
808.921875 0.315869
807.747070 0.299512
806.572266 0.280900
805.396484 0.298023
804.221680 0.292531
803.045898 0.280262
801.869141 0.282459
800.693359 0.274716
799.516602 0.283238
798.339844 0.260142
797.162109 0.280403
795.985352 0.272667
794.807617 0.274863
793.628906 0.266680
792.451172 0.276546
791.272461 0.280093
790.093750 0.296716
788.915039 0.296199
787.735352 0.303796
786.556641 0.316346
785.375977 0.312221
784.196289 0.297738
783.015625 0.292268
781.835938 0.275544
780.654297 0.274583
779.473633 0.270921
778.291992 0.260513
777.110352 0.262254
775.928711 0.262196
774.747070 0.253145
773.564453 0.262079
772.381836 0.251235
771.199219 0.260615
770.015625 0.255615
768.832031 0.264092
767.648438 0.258644
766.464844 0.252751
765.280273 0.271097
764.095703 0.277318
762.911133 0.283538
761.725586 0.303210
760.541016 0.305833
759.355469 0.338493
758.168945 0.341107
756.983398 0.357164
755.796875 0.361564
754.610352 0.359244
753.422852 0.360507
752.236328 0.344756
751.048828 0.327221
749.861328 0.318645
748.672852 0.325732
747.485352 0.325212
746.296875 0.313959
745.107422 0.317465
743.918945 0.291019
742.729492 0.290507
741.540039 0.283740
740.349609 0.288590
739.160156 0.283613
737.969727 0.278637
736.779297 0.277682
735.587891 0.269586
734.397461 0.274434
733.206055 0.269465
732.013672 0.274310
730.822266 0.258641
729.629883 0.261704
728.437500 0.254068
727.244141 0.271390
726.051758 0.259300
724.858398 0.269932
723.665039 0.271207
722.470703 0.270701
721.276367 0.254170
720.082031 0.269244
718.887695 0.264734
717.693359 0.264230
716.498047 0.260613
715.302734 0.263666
714.106445 0.254272
712.911133 0.262214
711.714844 0.278151
710.517578 0.277200
709.321289 0.278914
708.124023 0.278407
706.926758 0.277012
705.729492 0.275175
704.531250 0.272894
703.333008 0.283036
702.134766 0.276319
700.936523 0.272266
699.737305 0.267771
698.538086 0.277018
697.338867 0.279171
696.138672 0.290627
694.938477 0.283917
693.738281 0.288724
692.538086 0.292200
691.336914 0.283282
690.135742 0.305344
688.934570 0.302620
687.732422 0.303436
686.531250 0.310443
685.328125 0.303299
684.125977 0.311187
682.923828 0.306255
681.720703 0.304418
680.516602 0.311417
679.313477 0.322387
678.109375 0.327170
676.905273 0.321357
675.701172 0.337172
674.496094 0.329595
673.291992 0.333931
672.085938 0.324153
670.880859 0.343480
669.674805 0.345165
668.468750 0.329220
667.262695 0.330467
666.055664 0.314533
664.849609 0.315783
663.642578 0.312629
662.434570 0.301552
661.227539 0.316888
660.019531 0.302295
658.810547 0.277590
657.602539 0.309634
656.393555 0.298570
655.184570 0.311251
653.975586 0.292281
652.765625 0.301002
651.555664 0.309281
650.345703 0.317116
649.134766 0.302553
647.924805 0.292386
646.712891 0.276518
645.501953 0.281721
644.291016 0.280779
643.079102 0.288171
641.866211 0.301700
640.654297 0.289355
639.441406 0.284906
638.228516 0.294919
637.015625 0.290909
635.801758 0.276388
634.587891 0.292089
633.374023 0.283704
632.160156 0.285827
630.945313 0.289700
629.730469 0.297072
628.514648 0.284318
627.299805 0.291687
626.083984 0.278504
624.868164 0.287620
623.651367 0.286680
622.435547 0.302342
621.218750 0.287421
620.000977 0.299147
618.784180 0.326148
617.566406 0.320398
616.347656 0.312469
615.129883 0.310652
613.911133 0.311889
612.692383 0.297426
611.473633 0.295613
610.253906 0.287699
609.034180 0.295477
607.814453 0.273188
606.594727 0.273560
605.374023 0.279159
604.153320 0.300865
602.931641 0.271195
601.710938 0.292892
600.489258 0.278466
599.267578 0.289277
598.044922 0.292689
596.822266 0.290448
595.599609 0.291250
594.376953 0.277275
593.153320 0.273301
591.929688 0.282794
590.706055 0.275780
589.481445 0.278322
588.257813 0.293017
587.032227 0.275589
585.807617 0.278562
584.582031 0.283269
583.356445 0.276698
582.130859 0.284873
580.905273 0.276137
579.678711 0.264371
578.452148 0.274275
577.224609 0.280710
575.997070 0.293204
574.769531 0.291837
573.541992 0.277484
572.313477 0.280016
571.084961 0.278653
569.856445 0.277723
568.627930 0.281983
567.398438 0.272838
566.168945 0.285310
564.939453 0.273143
563.708984 0.281721
562.478516 0.283383
561.248047 0.269065
560.016602 0.261662
558.785156 0.262464
557.553711 0.275351
556.322266 0.265362
555.089844 0.284713
553.857422 0.269983
552.625000 0.255691
551.391602 0.270288
550.158203 0.273241
548.924805 0.269731
547.690430 0.272683
546.457031 0.264867
545.222656 0.264375
543.987305 0.280671
542.752930 0.273719
541.517578 0.275807
540.281250 0.280904
539.045898 0.280838
537.809570 0.269593
536.573242 0.272109
535.335938 0.264310
534.099609 0.267255
532.861328 0.280080
531.624023 0.283879
530.385742 0.285101
529.148438 0.284605
527.909180 0.287113
526.670898 0.293481
525.431641 0.274109
524.192383 0.279620
522.952148 0.297133
521.712891 0.295349
520.472656 0.289708
519.231445 0.293068
517.991211 0.289143
516.750000 0.271945
515.508789 0.294145
514.266602 0.282946
513.024414 0.306417
511.782227 0.297788
510.540039 0.299856
509.296875 0.292943
508.053711 0.309549
506.810547 0.303064
505.566406 0.300855
504.322266 0.295657
503.078125 0.301568
501.833008 0.311746
500.587891 0.321065
499.342773 0.324830
498.097656 0.333715
496.851563 0.321264
495.605469 0.316922
494.359375 0.324523
493.112305 0.318051
491.865234 0.317976
490.618164 0.329832
489.370117 0.356594
488.123047 0.352250
486.874023 0.336411
485.625977 0.351232
484.376953 0.370728
483.127930 0.354044
481.878906 0.354385
480.628906 0.361957
479.378906 0.364847
478.128906 0.372413
476.877930 0.378700
475.626953 0.384134
474.375977 0.402735
473.125000 0.395418
471.873047 0.392776
470.621094 0.419852
469.368164 0.443944
468.115234 0.423471
466.862305 0.455611
465.609375 0.482645
464.355469 0.503731
463.102539 0.535828
461.847656 0.577658
460.593750 0.638110
459.338867 0.698111
458.083984 0.781799
456.828125 0.852744
455.572266 0.891061
454.316406 0.877305
453.060547 0.895289
451.803711 0.835431
450.546875 0.718510
449.290039 0.676058
448.032227 0.607841
446.774414 0.571774
445.516602 0.534035
444.257813 0.500960
442.999023 0.514353
441.740234 0.497764
440.481445 0.469787
439.221680 0.455326
437.961914 0.467873
436.701172 0.453842
435.441406 0.440239
434.180664 0.477654
432.918945 0.471638
431.658203 0.479109
430.396484 0.488683
429.133789 0.486038
427.872070 0.462762
426.609375 0.479068
425.346680 0.468010
424.083008 0.466635
422.819336 0.475777
421.555664 0.477344
420.291016 0.481013
419.027344 0.475011
417.762695 0.484983
416.497070 0.494949
415.231445 0.519613
413.965820 0.535446
412.700195 0.544973
411.433594 0.553655
410.166992 0.571146
408.900391 0.574364
407.632813 0.594778
406.365234 0.625665
405.097656 0.625094
403.830078 0.668114
402.561523 0.671723
401.291992 0.692507
400.023438 0.725427
398.753906 0.769636
397.484375 0.765681
396.214844 0.788096
394.944336 0.781627
393.673828 0.837493
392.402344 0.820978
391.130859 0.857573
389.859375 0.852765
388.587891 0.858408
387.315430 0.898727
386.042969 0.889736
384.770508 0.913322
383.497070 0.934810
382.223633 0.920389
380.950195 0.923085
379.676758 0.919522
378.402344 0.930141
377.126953 0.947011
375.852539 0.960536
374.577148 0.937794
373.301758 0.922563
372.025391 0.946083
370.749023 0.944184
369.472656 0.904812
368.196289 0.917495
366.918945 0.911859
365.641602 0.882509
364.363281 0.867317
363.085938 0.874590
361.807617 0.892253
360.528320 0.874159
359.249023 0.855659
357.969727 0.832182
356.690430 0.834469
355.410156 0.816407
354.129883 0.804166
352.849609 0.813099
351.568359 0.797959
350.287109 0.784902
349.005859 0.788856
347.723633 0.797783
346.441406 0.766909
345.159180 0.777909
343.875977 0.747056
342.592773 0.739000
341.309570 0.716040
340.026367 0.694333
338.742188 0.694160
337.457031 0.654675
336.172852 0.661959
334.887695 0.633255
333.602539 0.630617
332.316406 0.619298
331.030273 0.599305
329.744141 0.589652
328.457031 0.571328
327.170898 0.569121
325.882813 0.559070
324.595703 0.565535
323.307617 0.558791
322.019531 0.535134
320.730469 0.537888
319.441406 0.524557
318.152344 0.516593
316.863281 0.530066
315.573242 0.523340
314.283203 0.546692
312.992188 0.519783
311.701172 0.522536
310.410156 0.526933
309.119141 0.524332
307.827148 0.535721
306.535156 0.529417
305.242188 0.532574
303.950195 0.530385
302.656250 0.540939
301.363281 0.556830
300.069336 0.565317
298.775391 0.575854
297.480469 0.566676
296.186523 0.597323
294.891602 0.593479
293.595703 0.601946
292.299805 0.609178
291.003906 0.652497
289.708008 0.684314
288.411133 0.690290
287.114258 0.739702
285.816406 0.751397
284.518555 0.818381
283.220703 0.821860
281.922852 0.843759
280.624023 0.889795
279.325195 0.916167
278.025391 0.949889
276.725586 0.957419
275.425781 0.994792
274.125977 1.039914
272.825195 1.057631
271.523438 1.126410
270.222656 1.182083
268.920898 1.209959
267.619141 1.277829
266.316406 1.343216
265.013672 1.405305
263.710938 1.458795
262.408203 1.551002
261.104492 1.575886
259.799805 1.649265
258.496094 1.705490
257.191406 1.756390
255.886719 1.819482
254.581055 1.843857
253.275391 1.875954
251.969727 1.892569
250.663086 1.955968
249.356445 1.979874
248.049805 2.027763
246.742188 2.045540
245.434570 2.084851
244.126953 2.070093
242.818359 2.065498
241.509766 2.092993
240.201172 2.049413
238.891602 2.053351
237.582031 2.001685
236.271484 2.016588
234.961914 1.964957
233.650391 1.966884
232.339844 1.912049
231.028320 1.882371
229.716797 1.877428
228.405273 1.868841
227.092773 1.849727
225.779297 1.783653
224.466797 1.815981
223.153320 1.784753
221.839844 1.785101
220.525391 1.752683
219.210938 1.763552
217.896484 1.733986
216.581055 1.732323
215.265625 1.717327
213.950195 1.712033
212.633789 1.732589
211.317383 1.657443
210.000977 1.649342
208.683594 1.625507
207.366211 1.654939
206.048828 1.610543
204.730469 1.600042
203.412109 1.610913
202.092773 1.545605
200.773438 1.530293
199.454102 1.554062
198.133789 1.536340
196.814453 1.510171
195.493164 1.510983
194.172852 1.519440
192.851563 1.525076
191.529297 1.507785
190.208008 1.509802
188.885742 1.519455
187.562500 1.536738
186.239258 1.525487
184.916016 1.560833
183.592773 1.547974
182.268555 1.549173
180.944336 1.531106
179.619141 1.554375
178.293945 1.572016
176.968750 1.596866
175.643555 1.632126
174.317383 1.629690
172.990234 1.636873
171.664063 1.669690
170.336914 1.704091
169.008789 1.732467
167.680664 1.733610
166.352539 1.771967
165.024414 1.847510
163.695313 1.878217
162.366211 1.944094
161.036133 1.959567
159.706055 2.041373
158.375977 2.110349
157.044922 2.164110
155.713867 2.250586
154.382813 2.322245
153.050781 2.373909
151.718750 2.403999
150.385742 2.447635
149.053711 2.542292
147.719727 2.565534
146.386719 2.576008
145.052734 2.618354
143.717773 2.663465
142.383789 2.635670
141.048828 2.669602
139.712891 2.699536
138.377930 2.717912
137.041016 2.747815
135.705078 2.713668
134.368164 2.716119
133.031250 2.710221
131.693359 2.684058
130.355469 2.694062
129.017578 2.694924
127.678711 2.699360
126.339844 2.672431
125.000977 2.667344
123.661133 2.651943
122.321289 2.641706
120.980469 2.648922
119.639648 2.641069
118.298828 2.622915
116.957031 2.600016
115.615234 2.643676
114.273438 2.691667
112.930664 2.667182
111.587891 2.666457
110.244141 2.656236
108.900391 2.640877
107.556641 2.579651
106.211914 2.491968
104.867188 2.364412
103.522461 2.192669
102.176758 1.955047
100.831055 1.792196
99.484375 1.550470
98.137695 1.312427
