3198.529297 0.009353
3197.824219 0.001700
3197.119141 0.011050
3196.414063 0.012748
3195.708008 0.012746
3195.001953 0.014444
3194.296875 0.004247
3193.590820 0.015289
3192.884766 0.008492
3192.178711 0.005944
3191.472656 0.014432
3190.765625 0.016128
3190.059570 0.016125
3189.352539 0.010183
3188.646484 0.005939
3187.939453 0.010180
3187.232422 0.012723
3186.525391 0.009328
3185.818359 0.011871
3185.111328 0.011021
3184.404297 0.005086
3183.696289 0.012713
3182.989258 0.014405
3182.281250 0.003389
3181.573242 0.014401
3180.865234 0.010164
3180.157227 0.009315
3179.449219 0.005927
3178.741211 0.012698
3178.033203 0.015236
3177.324219 0.015233
3176.616211 0.014385
3175.907227 0.008460
3175.198242 0.005921
3174.489258 0.014378
3173.780273 0.008456
3173.071289 0.009300
3172.362305 0.009299
3171.652344 0.015214
3170.943359 0.007606
3170.233398 0.016054
3169.523438 0.006758
3168.814453 0.009291
3168.104492 0.017735
3167.394531 0.002533
3166.683594 0.020262
3165.973633 0.006753
3165.263672 0.012660
3164.552734 0.010126
3163.841797 0.011812
3163.130859 0.014341
3162.420898 0.009278
3161.709961 0.012649
3160.998047 0.002529
3160.287109 0.010116
3159.576172 0.012643
3158.864258 0.009270
3158.153320 0.009269
3157.441406 0.015165
3156.729492 0.005896
3156.017578 0.013475
3155.305664 0.012631
3154.593750 0.010945
3153.880859 0.011785
3153.168945 0.010100
3152.456055 0.016830
3151.744141 0.013462
3151.031250 0.011777
3150.318359 0.015140
3149.605469 0.009251
3148.892578 0.011771
3148.178711 0.010088
3147.465820 0.010087
3146.751953 0.023531
3146.039063 0.007562
3145.325195 0.016803
3144.611328 0.009240
3143.897461 0.013438
3143.183594 0.017634
3142.468750 0.005877
3141.754883 0.005037
3141.041016 0.010071
3140.326172 0.013426
3139.611328 0.016780
3138.896484 0.020133
3138.181641 0.012581
3137.466797 0.011740
3136.751953 0.008385
3136.037109 0.011736
3135.321289 0.012573
3134.605469 0.020113
3133.890625 0.010893
3133.174805 0.010053
3132.458984 0.019265
3131.743164 0.012562
3131.027344 0.015909
3130.310547 0.010046
3129.594727 0.013393
3128.877930 0.014227
3128.161133 0.015899
3127.445313 0.005856
3126.728516 0.012547
3126.010742 0.009200
3125.293945 0.016724
3124.577148 0.010033
3123.859375 0.015047
3123.142578 0.005015
3122.424805 0.015042
3121.707031 0.016710
3120.989258 0.015036
3120.271484 0.019210
3119.553711 0.007516
3118.835938 0.013359
3118.117188 0.020870
3117.399414 0.009181
3116.680664 0.007511
3115.961914 0.013350
3115.243164 0.015016
3114.524414 0.006673
3113.805664 0.010007
3113.086914 0.015842
3112.367188 0.010838
3111.648438 0.015003
3110.928711 0.010834
3110.208984 0.011665
3109.489258 0.010830
3108.769531 0.007496
3108.049805 0.014990
3107.329102 0.009159
3106.609375 0.009990
3105.888672 0.011653
3105.168945 0.014148
3104.448242 0.008321
3103.727539 0.009151
3103.006836 0.016636
3102.285156 0.019128
3101.564453 0.014967
3100.843750 0.009145
3100.122070 0.015793
3099.400391 0.015791
3098.678711 0.014957
3097.957031 0.007477
3097.235352 0.018274
3096.513672 0.010797
3095.791992 0.011625
3095.069336 0.009963
3094.346680 0.019092
3093.625000 0.014109
3092.902344 0.019085
3092.179688 0.014104
3091.457031 0.020738
3090.733398 0.015758
3090.010742 0.009951
3089.287109 0.006633
3088.564453 0.009118
3087.840820 0.014918
3087.117188 0.004972
3086.393555 0.012427
3085.669922 0.009940
3084.946289 0.012423
3084.221680 0.020701
3083.498047 0.015730
3082.773438 0.012417
3082.048828 0.011587
3081.324219 0.020687
3080.599609 0.016547
3079.875000 0.006618
3079.149414 0.013233
3078.424805 0.014884
3077.699219 0.013228
3076.974609 0.020665
3076.249023 0.015703
3075.523438 0.008263
3074.797852 0.015697
3074.071289 0.018173
3073.345703 0.014866
3072.619141 0.009909
3071.893555 0.015686
3071.166992 0.018160
3070.440430 0.015681
3069.713867 0.017328
3068.987305 0.017325
3068.259766 0.013198
3067.533203 0.009072
3066.805664 0.015667
3066.079102 0.008244
3065.351563 0.014837
3064.624023 0.016483
3063.896484 0.008240
3063.168945 0.014005
3062.440430 0.012355
3061.712891 0.014000
3060.984375 0.013174
3060.255859 0.011526
3059.527344 0.019755
3058.798828 0.017282
3058.070313 0.012342
3057.341797 0.015631
3056.613281 0.014805
3055.883789 0.026316
3055.154297 0.007400
3054.424805 0.011509
3053.695313 0.014795
3052.965820 0.013149
3052.236328 0.027936
3051.506836 0.016430
3050.776367 0.009035
3050.046875 0.017245
3049.316406 0.022168
3048.585938 0.013134
3047.855469 0.012311
3047.125000 0.015592
3046.393555 0.016409
3045.663086 0.013945
3044.931641 0.016403
3044.201172 0.018041
3043.469727 0.019677
3042.738281 0.022133
3042.006836 0.012294
3041.275391 0.015569
3040.542969 0.028675
3039.811523 0.012287
3039.079102 0.013923
3038.346680 0.022928
3037.614258 0.019649
3036.881836 0.014734
3036.149414 0.018005
3035.416992 0.020456
3034.683594 0.015544
3033.951172 0.018813
3033.217773 0.017992
3032.484375 0.013083
3031.750977 0.028613
3031.017578 0.019617
3030.284180 0.022882
3029.549805 0.014707
3028.816406 0.017155
3028.082031 0.015519
3027.347656 0.018782
3026.613281 0.022861
3025.878906 0.017959
3025.144531 0.017140
3024.410156 0.014689
3023.674805 0.026108
3022.939453 0.013867
3022.205078 0.027730
3021.469727 0.015493
3020.734375 0.021197
3019.999023 0.019563
3019.262695 0.021190
3018.527344 0.024445
3017.791016 0.017109
3017.054688 0.020364
3016.318359 0.017917
3015.582031 0.019542
3014.845703 0.020352
3014.109375 0.017907
3013.373047 0.020345
3012.635742 0.019528
3011.898438 0.019524
3011.161133 0.022774
3010.424805 0.021957
3009.686523 0.023579
3008.949219 0.022761
3008.211914 0.029259
3007.473633 0.019503
3006.736328 0.025186
3005.998047 0.017871
3005.259766 0.026801
3004.521484 0.020300
3003.782227 0.035722
3003.043945 0.021916
3002.305664 0.020289
3001.566406 0.029211
3000.827148 0.028394
3000.087891 0.021900
2999.348633 0.028384
2998.609375 0.023514
2997.870117 0.021077
2997.129883 0.034852
2996.389648 0.023501
2995.650391 0.035650
2994.910156 0.030783
2994.169922 0.028347
2993.429688 0.027532
2992.688477 0.024289
2991.948242 0.030760
2991.207031 0.027517
2990.465820 0.036413
2989.725586 0.030743
2988.983398 0.029928
2988.242188 0.033966
2987.500977 0.031534
2986.759766 0.025869
2986.017578 0.026673
2985.275391 0.031517
2984.533203 0.037975
2983.791016 0.039583
2983.048828 0.036345
2982.306641 0.029878
2981.563477 0.041176
2980.821289 0.044397
2980.078125 0.040353
2979.334961 0.039539
2978.591797 0.041952
2977.848633 0.041944
2977.105469 0.050807
2976.361328 0.043541
2975.618164 0.049982
2974.874023 0.045137
2974.129883 0.045128
2973.385742 0.048343
2972.641602 0.045917
2971.897461 0.041076
2971.152344 0.041874
2970.408203 0.053943
2969.663086 0.058762
2968.917969 0.049094
2968.172852 0.057131
2967.427734 0.057925
2966.682617 0.055501
2965.936523 0.057903
2965.191406 0.062717
2964.445313 0.065117
2963.699219 0.059478
2962.953125 0.063485
2962.207031 0.065883
2961.460938 0.060248
2960.713867 0.073890
2959.967773 0.082709
2959.220703 0.074665
2958.473633 0.080270
2957.726563 0.078650
2956.979492 0.081845
2956.232422 0.086643
2955.484375 0.085825
2954.737305 0.081799
2953.989258 0.078576
2953.241211 0.088181
2952.493164 0.079348
2951.745117 0.084141
2950.997070 0.081722
2950.248047 0.086513
2949.500000 0.088899
2948.750977 0.085679
2948.001953 0.090466
2947.252930 0.104857
2946.503906 0.085631
2945.754883 0.093616
2945.004883 0.082398
2944.255859 0.092781
2943.505859 0.087965
2942.755859 0.095944
2942.005859 0.103919
2941.255859 0.091112
2940.504883 0.095889
2939.754883 0.100665
2939.003906 0.082274
2938.252930 0.094237
2937.502930 0.091026
2936.750977 0.094202
2936.000000 0.097376
2935.249023 0.082196
2934.497070 0.089361
2933.746094 0.079771
2932.994141 0.082149
2932.242188 0.090107
2931.490234 0.078929
2930.738281 0.082102
2929.985352 0.080493
2929.233398 0.078884
2928.480469 0.094802
2927.727539 0.082040
2926.974609 0.074060
2926.221680 0.086786
2925.468750 0.084381
2924.715820 0.083569
2923.961914 0.087532
2923.208008 0.075581
2922.455078 0.085907
2921.701172 0.068395
2920.946289 0.080309
2920.192383 0.075523
2919.438477 0.079483
2918.683594 0.077084
2917.928711 0.079453
2917.173828 0.073877
2916.418945 0.073863
2915.664063 0.070673
2914.909180 0.081774
2914.153320 0.065883
2913.398438 0.071426
2912.642578 0.065064
2911.886719 0.080918
2911.130859 0.072178
2910.375000 0.081680
2909.619141 0.080872
2908.862305 0.087198
2908.105469 0.080048
2907.349609 0.083995
2906.592773 0.079225
2905.835938 0.092675
2905.078125 0.076819
2904.321289 0.081555
2903.563477 0.081539
2902.806641 0.083898
2902.048828 0.079134
2901.291016 0.075954
2900.533203 0.081476
2899.774414 0.079088
2899.016602 0.078282
2898.257813 0.081429
2897.500000 0.081414
2896.741211 0.079027
2895.982422 0.077432
2895.222656 0.075837
2894.463867 0.078192
2893.705078 0.079756
2892.945313 0.081320
2892.185547 0.081304
2891.425781 0.089180
2890.666016 0.078906
2889.906250 0.085202
2889.146484 0.081241
2888.385742 0.078860
2887.625000 0.088306
2886.864258 0.077253
2886.103516 0.081179
2885.342773 0.078799
2884.582031 0.077996
2883.821289 0.085858
2883.059570 0.074816
2882.297852 0.081100
2881.536133 0.078723
2880.774414 0.088152
2880.012695 0.090496
2879.250977 0.077890
2878.488281 0.073942
2877.726563 0.089657
2876.963867 0.088853
2876.201172 0.079402
2875.438477 0.078601
2874.674805 0.077014
2873.912109 0.072285
2873.149414 0.094266
2872.385742 0.087179
2871.622070 0.080880
2870.858398 0.091071
2870.094727 0.079279
2869.330078 0.086327
2868.566406 0.087879
2867.801758 0.083940
2867.038086 0.073727
2866.273438 0.097238
2865.508789 0.084675
2864.743164 0.080739
2863.978516 0.091695
2863.212891 0.086192
2862.448242 0.083825
2861.682617 0.080676
2860.916992 0.085359
2860.151367 0.104133
2859.384766 0.075149
2858.619141 0.090005
2857.852539 0.092335
2857.086914 0.089187
2856.320313 0.090734
2855.553711 0.085242
2854.786133 0.085226
2854.019531 0.087554
2853.251953 0.084411
2852.485352 0.087520
2851.717773 0.095316
2850.950195 0.089829
2850.182617 0.087469
2849.414063 0.094479
2848.646484 0.095241
2847.877930 0.094442
2847.110352 0.095204
2846.341797 0.087383
2845.573242 0.087366
2844.803711 0.091248
2844.035156 0.082653
2843.266602 0.094331
2842.497070 0.085739
2841.727539 0.088060
2840.958008 0.089601
2840.188477 0.082572
2839.418945 0.082556
2838.648438 0.072417
2837.878906 0.080188
2837.108398 0.079394
2836.337891 0.084826
2835.567383 0.085587
2834.795898 0.085571
2834.025391 0.082443
2833.254883 0.073873
2832.483398 0.086297
2831.711914 0.082394
2830.940430 0.086264
2830.168945 0.076146
2829.397461 0.072246
2828.625000 0.079222
2827.852539 0.086196
2827.081055 0.077638
2826.308594 0.083833
2825.536133 0.076832
2824.762695 0.086904
2823.990234 0.069044
2823.216797 0.079889
2822.444336 0.095382
2821.670898 0.083734
2820.897461 0.079066
2820.123047 0.079826
2819.349609 0.075936
2818.576172 0.074371
2817.801758 0.083651
2817.027344 0.067372
2816.252930 0.068133
2815.478516 0.076635
2814.704102 0.057271
2813.928711 0.071188
2813.154297 0.075816
2812.378906 0.052596
2811.603516 0.068826
2810.828125 0.078090
2810.052734 0.065706
2809.276367 0.071876
2808.500977 0.063362
2807.724609 0.063350
2806.948242 0.068744
2806.171875 0.074908
2805.395508 0.062540
2804.619141 0.061755
2803.841797 0.069461
2803.064453 0.064817
2802.288086 0.071748
2801.510742 0.051679
2800.733398 0.059381
2799.955078 0.065537
2799.177734 0.070920
2798.399414 0.067823
2797.621094 0.060104
2796.842773 0.062403
2796.064453 0.059310
2795.286133 0.065459
2794.507813 0.066986
2793.728516 0.057735
2792.950195 0.079273
2792.170898 0.066176
2791.391602 0.060008
2790.611328 0.053074
2789.832031 0.066906
2789.052734 0.063048
2788.272461 0.064573
2787.492188 0.061486
2786.711914 0.067621
2785.931641 0.054547
2785.151367 0.055304
2784.370117 0.051453
2783.588867 0.062960
2782.808594 0.060644
2782.027344 0.058330
2781.246094 0.069828
2780.463867 0.056005
2779.682617 0.055227
2778.900391 0.058283
2778.119141 0.061338
2777.336914 0.047528
2776.554688 0.065912
2775.771484 0.055937
2774.989258 0.049797
2774.206055 0.054383
2773.423828 0.049012
2772.640625 0.062784
2771.857422 0.058178
2771.074219 0.053574
2770.290039 0.059685
2769.506836 0.055848
2768.722656 0.047423
2767.938477 0.055825
2767.154297 0.049698
2766.370117 0.053510
2765.585938 0.055027
2764.800781 0.058073
2764.016602 0.049658
2763.231445 0.048120
2762.446289 0.062620
2761.661133 0.048864
2760.875000 0.054198
2760.089844 0.045792
2759.303711 0.051887
2758.518555 0.046536
2757.732422 0.051103
2756.945313 0.064057
2756.159180 0.042696
2755.373047 0.058695
2754.585938 0.057159
2753.798828 0.057147
2753.012695 0.049518
2752.224609 0.059409
2751.437500 0.051021
2750.650391 0.054817
2749.862305 0.057851
2749.074219 0.058600
2748.287109 0.046414
2747.499023 0.048687
2746.709961 0.046395
2745.921875 0.059313
2745.132813 0.059301
2744.344727 0.054728
2743.555664 0.058517
2742.766602 0.059265
2741.977539 0.053176
2741.187500 0.057722
2740.398438 0.056951
2739.608398 0.049348
2738.818359 0.055410
2738.028320 0.056916
2737.238281 0.058422
2736.448242 0.059928
2735.657227 0.061432
2734.866211 0.055354
2734.075195 0.056859
2733.284180 0.058363
2732.493164 0.052289
2731.702148 0.051520
2730.910156 0.058327
2730.119141 0.055286
2729.327148 0.059061
2728.535156 0.052993
2727.743164 0.043142
2726.950195 0.051458
2726.158203 0.056743
2725.365234 0.055975
2724.572266 0.051426
2723.779297 0.055196
2722.986328 0.050649
2722.193359 0.052150
2721.399414 0.049873
2720.606445 0.045330
2719.812500 0.055140
2719.018555 0.052863
2718.224609 0.061158
2717.430664 0.055861
2716.635742 0.049057
2715.840820 0.050556
2715.046875 0.049791
2714.251953 0.053552
2713.456055 0.049771
2712.661133 0.052777
2711.866211 0.055781
2711.070313 0.042958
2710.274414 0.053498
2709.478516 0.058007
2708.682617 0.053476
2707.886719 0.038404
2707.089844 0.057218
2706.293945 0.051937
2705.497070 0.054184
2704.700195 0.042135
2703.903320 0.042878
2703.105469 0.047382
2702.308594 0.054892
2701.510742 0.042852
2700.712891 0.050359
2699.915039 0.055609
2699.117188 0.052593
2698.319336 0.056338
2697.520508 0.049567
2696.722656 0.051059
2695.923828 0.054051
2695.125000 0.042031
2694.326172 0.051777
2693.526367 0.040513
2692.727539 0.050256
2691.927734 0.054745
2691.127930 0.048736
2690.328125 0.054722
2689.528320 0.053962
2688.728516 0.055449
2687.927734 0.053190
2687.126953 0.045689
2686.326172 0.046429
2685.525391 0.050911
2684.724609 0.058386
2683.923828 0.053884
2683.122070 0.064348
2682.321289 0.051617
2681.519531 0.053102
2680.717773 0.050100
2679.915039 0.055323
2679.113281 0.053817
2678.310547 0.051564
2677.508789 0.050806
2676.706055 0.044072
2675.903320 0.055266
2675.099609 0.060481
2674.296875 0.055243
2673.493164 0.058217
2672.690430 0.050742
2671.886719 0.058939
2671.083008 0.054451
2670.278320 0.046982
2669.474609 0.059647
2668.669922 0.052181
2667.865234 0.061113
2667.060547 0.052904
2666.255859 0.056618
2665.451172 0.058096
2664.646484 0.050637
2663.840820 0.053604
2663.035156 0.047638
2662.229492 0.059535
2661.423828 0.055059
2660.618164 0.057279
2659.811523 0.062473
2659.004883 0.052050
2658.199219 0.050552
2657.391602 0.055001
2656.584961 0.055733
2655.778320 0.048292
2655.033203 0.054343
2654.970703 0.058681
2654.227539 0.045410
2654.164063 0.058668
2653.421875 0.047636
2653.356445 0.049004
2652.616211 0.053581
2652.548828 0.060871
2651.810547 0.050596
2651.740234 0.044530
2651.004883 0.057284
2650.932617 0.060103
2650.198242 0.050580
2650.124023 0.054898
2649.392578 0.056521
2649.316406 0.048952
2648.585938 0.045359
2648.507813 0.049684
2647.779297 0.055760
2647.699219 0.050415
2646.972656 0.049061
2646.889648 0.057816
2646.166016 0.050539
2646.081055 0.060028
2645.359375 0.045329
2645.271484 0.045937
2644.552734 0.049037
2644.461914 0.049632
2643.745117 0.049771
2643.652344 0.054065
2642.938477 0.066104
2642.842773 0.054053
2642.130859 0.051983
2642.033203 0.048120
2641.323242 0.057915
2641.222656 0.050330
2640.515625 0.046769
2640.413086 0.055499
2639.708008 0.053442
2639.602539 0.047349
2638.899414 0.053433
2638.791992 0.056215
2638.091797 0.063071
2637.981445 0.055464
2637.283203 0.052674
2637.169922 0.062107
2636.475586 0.060825
2636.359375 0.048049
2635.666992 0.046723
2635.547852 0.049517
2634.858398 0.048940
2634.736328 0.056156
2634.049805 0.055605
2633.924805 0.060577
2633.241211 0.065232
2633.113281 0.051701
2632.431641 0.065221
2632.300781 0.057597
2631.623047 0.072621
2631.489258 0.056109
2630.813477 0.051123
2630.676758 0.054621
2630.003906 0.055559
2629.864258 0.050919
2629.194336 0.055550
2629.051758 0.051646
2628.384766 0.048135
2628.238281 0.051635
2627.575195 0.046646
2627.425781 0.065637
2626.765625 0.057743
2626.612305 0.053825
2625.955078 0.053292
2625.798828 0.052340
2625.145508 0.051063
2624.985352 0.057488
2624.334961 0.061414
2624.171875 0.052317
2623.524414 0.052526
2623.358398 0.054516
2622.713867 0.052517
2622.543945 0.067763
2621.903320 0.058425
2621.729492 0.061121
2621.092773 0.059155
2620.916016 0.065525
2620.281250 0.053969
2620.100586 0.060359
2619.469727 0.059874
2619.286133 0.059610
2618.659180 0.059125
2618.471680 0.064748
2617.847656 0.063549
2617.656250 0.063263
2617.036133 0.057627
2616.840820 0.058101
2616.224609 0.050970
2616.025391 0.064706
2615.412109 0.064255
2615.209961 0.069838
2614.600586 0.056860
2614.394531 0.058064
2613.788086 0.059804
2613.578125 0.056582
2612.976563 0.058317
2612.762695 0.060243
2612.164063 0.057569
2611.946289 0.066841
2611.351563 0.063463
2611.129883 0.058014
2610.539063 0.064928
2610.312500 0.059470
2609.726563 0.052376
2609.496094 0.050649
2608.913086 0.053843
2608.678711 0.051372
2608.100586 0.057521
2607.862305 0.071172
2607.287109 0.067833
2607.044922 0.061620
2606.473633 0.067085
2606.227539 0.062340
2605.660156 0.058229
2605.409180 0.067460
2604.846680 0.066325
2604.591797 0.063047
2604.033203 0.067051
2603.773438 0.060101
2603.218750 0.056725
2602.955078 0.060821
2602.405273 0.057452
2602.136719 0.054215
2601.590820 0.057443
2601.318359 0.070317
2600.776367 0.054488
2600.500000 0.068838
2599.961914 0.057423
2599.680664 0.071019
2599.147461 0.061094
2598.861328 0.051240
2598.333008 0.064763
2598.042969 0.065134
2597.518555 0.057394
2597.222656 0.056340
2596.703125 0.054441
2596.403320 0.064374
2595.888672 0.058110
2595.583984 0.046076
2595.073242 0.060306
2594.763672 0.067272
2594.257813 0.063237
2593.943359 0.059947
2593.442383 0.057344
2593.123047 0.056279
2592.625977 0.058805
2592.302734 0.055536
2591.810547 0.052915
2591.482422 0.061369
2590.994141 0.061724
2590.661133 0.051130
2590.178711 0.056570
2589.839844 0.051119
2589.362305 0.063172
2589.018555 0.059869
2588.545898 0.058754
2588.197266 0.061316
2587.729492 0.049198
2587.375977 0.059843
2586.913086 0.059468
2586.554688 0.056182
2586.095703 0.063128
2585.732422 0.058358
2585.279297 0.063117
2584.910156 0.053240
2584.461914 0.049898
2584.087891 0.064166
2583.644531 0.057960
2583.265625 0.061236
2582.827148 0.057950
2582.443359 0.051748
2582.009766 0.063807
2581.620117 0.059024
2581.192383 0.056463
2580.796875 0.060468
2580.374023 0.065251
2579.973633 0.065554
2579.556641 0.050579
2579.150391 0.057529
2578.738281 0.060831
2578.327148 0.058244
2577.919922 0.063019
2577.503906 0.061143
2577.101563 0.060077
2576.679688 0.060402
2576.283203 0.066659
2575.855469 0.060389
2575.464844 0.064451
2575.031250 0.056012
2574.645508 0.058581
2574.207031 0.069090
2573.827148 0.056375
2573.381836 0.055987
2573.007813 0.063685
2572.557617 0.057429
2572.188477 0.060746
2571.732422 0.055963
2571.369141 0.068785
2570.907227 0.053044
2570.549805 0.053409
2570.082031 0.063203
2569.730469 0.058520
2569.256836 0.047937
2568.910156 0.059972
2568.430664 0.051557
2568.090820 0.048262
2567.605469 0.065340
2567.270508 0.057758
2566.779297 0.055890
2566.450195 0.065789
2565.953125 0.059506
2565.629883 0.054814
2565.125977 0.052963
2564.809570 0.062843
2564.299805 0.060930
2563.989258 0.062832
2563.472656 0.060192
2563.167969 0.063551
2562.646484 0.055828
2562.346680 0.059158
2561.819336 0.057991
2561.526367 0.065719
2560.992188 0.065225
2560.705078 0.055487
2560.164063 0.055792
2559.883789 0.059127
2559.336914 0.064472
2559.061523 0.057656
2558.508789 0.068079
2558.240234 0.064943
2557.680664 0.060099
2557.417969 0.056907
2556.852539 0.057191
2556.596680 0.066379
2556.024414 0.060073
2555.774414 0.070743
2555.195313 0.058613
2554.952148 0.059793
2554.367188 0.062940
2554.129883 0.056137
2553.538086 0.063650
2553.307617 0.063416
2552.708984 0.056405
2552.484375 0.063405
2551.878906 0.063622
2551.662109 0.052464
2551.049805 0.062885
2550.838867 0.070668
2550.219727 0.063594
2550.015625 0.067014
2549.390625 0.063580
2549.192383 0.064088
2548.560547 0.060676
2548.369141 0.057524
2547.730469 0.057052
2547.544922 0.061154
2546.899414 0.062816
2546.721680 0.064782
2546.069336 0.064245
2545.897461 0.064043
2545.238281 0.062066
2545.074219 0.066214
2544.407227 0.064939
2544.250000 0.061837
2543.576172 0.065646
2543.425781 0.061099
2542.745117 0.064910
2542.600586 0.063270
2541.913086 0.073548
2541.776367 0.061804
2541.082031 0.058393
2540.951172 0.061066
2540.250000 0.055497
2540.126953 0.056694
2539.417969 0.065573
2539.301758 0.066131
2538.585938 0.061956
2538.476563 0.058127
2537.752930 0.060502
2537.651367 0.064655
2536.920898 0.057608
2536.826172 0.068275
2536.087891 0.071994
2536.000000 0.061727
2535.254883 0.066220
2535.174805 0.055181
2534.421875 0.059009
2534.348633 0.060979
2533.587891 0.061154
2533.522461 0.072581
2532.754883 0.061140
2532.696289 0.066037
2531.920898 0.060408
2531.870117 0.064574
2531.086914 0.056080
2531.042969 0.070365
2530.252930 0.066850
2530.216797 0.050770
2529.418945 0.066835
2529.389648 0.050761
2528.583984 0.066820
2528.562500 0.063802
2527.749023 0.061059
2527.735352 0.057266
2526.914063 0.066072
2526.908203 0.065228
2526.081055 0.062467
2526.079102 0.070289
2525.253906 0.062453
2525.244141 0.056511
2524.425781 0.059568
2524.409180 0.058674
2523.597656 0.060273
2523.573242 0.073148
2522.769531 0.058652
2522.737305 0.065998
2521.941406 0.062262
2521.901367 0.065983
2521.113281 0.062974
2521.065430 0.065251
2520.285156 0.070200
2520.228516 0.071689
2519.456055 0.060781
2519.392578 0.072389
2518.627930 0.066557
2518.555664 0.061625
2517.798828 0.074502
2517.718750 0.064476
2516.969727 0.065810
2516.881836 0.066611
2516.140625 0.067967
2516.043945 0.060867
2515.311523 0.067955
2515.207031 0.073740
2514.481445 0.064328
2514.369141 0.058692
2513.651367 0.065762
2513.531250 0.078000
2512.822266 0.070808
2512.693359 0.080844
2511.992188 0.065738
2511.855469 0.072958
2511.162109 0.064281
2511.016602 0.065790
2510.332031 0.074379
2510.177734 0.060771
2509.500977 0.069312
2509.338867 0.067905
2508.670898 0.074352
2508.500000 0.067890
2507.839844 0.071452
2507.661133 0.069303
2507.008789 0.069995
2506.821289 0.080716
2506.177734 0.073590
2505.982422 0.070700
2505.346680 0.067806
2505.142578 0.068542
2504.515625 0.072121
2504.302734 0.071382
2503.683594 0.062012
2503.461914 0.069225
2502.852539 0.074257
2502.622070 0.064215
2502.020508 0.069198
2501.781250 0.073473
2501.188477 0.071347
2500.940430 0.073457
2500.356445 0.077098
2500.099609 0.070588
2499.524414 0.059794
2499.258789 0.069146
2498.691406 0.071308
2498.416992 0.066280
2497.859375 0.068414
2497.576172 0.067690
2497.026367 0.068401
2496.734375 0.064825
2496.193359 0.077747
2495.892578 0.079766
2495.360352 0.076293
2495.050781 0.079036
2494.527344 0.066205
2494.208008 0.064068
2493.694336 0.074107
2493.365234 0.071883
2492.860352 0.066180
2492.523438 0.071155
2492.027344 0.073360
2491.680664 0.071850
2491.193359 0.072628
2490.836914 0.066855
2490.359375 0.076928
2489.994141 0.076083
2489.525391 0.071882
2489.150391 0.072511
2488.691406 0.080493
2488.306641 0.076048
2487.856445 0.075448
2487.462891 0.068925
2487.022461 0.076153
2486.619141 0.066068
2486.187500 0.073265
2485.775391 0.073155
2485.352539 0.073970
2484.930664 0.071718
2484.517578 0.076828
2484.085938 0.072411
2483.682617 0.066046
2483.241211 0.075234
2482.846680 0.081824
2482.396484 0.073088
2482.011719 0.070327
2481.550781 0.070233
2481.175781 0.069596
2480.706055 0.072345
2480.339844 0.078909
2479.860352 0.079419
2479.503906 0.072439
2479.014648 0.073020
2478.667969 0.071709
2478.168945 0.073003
2477.832031 0.071695
2477.322266 0.075112
2476.995117 0.081001
2476.476563 0.075095
2476.158203 0.079552
2475.629883 0.078619
2475.322266 0.065206
2474.783203 0.064438
2474.485352 0.066627
2473.936523 0.072919
2473.647461 0.073777
2473.088867 0.080688
2472.810547 0.073764
2472.242188 0.065809
2471.973633 0.073750
2471.394531 0.068624
2471.135742 0.078747
2470.546875 0.069315
2470.297852 0.080164
2469.698242 0.067177
2469.459961 0.073709
2468.850586 0.068576
2468.622070 0.081565
2468.001953 0.078455
2467.784180 0.073681
2467.153320 0.080557
2466.946289 0.068661
2466.304688 0.080538
2466.107422 0.082234
2465.456055 0.069218
2465.268555 0.067920
2464.607422 0.076970
2464.429688 0.078629
2463.757813 0.074834
2463.590820 0.072183
2462.908203 0.067758
2462.751953 0.077885
2462.058594 0.072682
2461.913086 0.080728
2461.208984 0.071959
2461.073242 0.073571
2460.358398 0.078996
2460.233398 0.072128
2459.508789 0.067695
2459.394531 0.072115
2458.658203 0.068384
2458.554688 0.067818
2457.807617 0.078235
2457.713867 0.077798
2456.956055 0.072580
2456.874023 0.077069
2456.105469 0.069040
2456.033203 0.083476
2455.253906 0.067616
2455.193359 0.073474
2454.402344 0.072529
2454.352539 0.073460
2453.550781 0.080256
2453.511719 0.067028
2452.699219 0.071791
2452.670898 0.076997
2451.846680 0.074589
2451.829102 0.069854
2450.995117 0.075275
2450.988281 0.066278
2450.146484 0.058377
2450.142578 0.069115
2449.304688 0.067504
2449.290039 0.071952
2448.462891 0.070300
2448.436523 0.069089
2447.621094 0.065516
2447.583984 0.061850
2446.779297 0.081167
2446.730469 0.070970
2445.937500 0.066203
2445.876953 0.066035
2445.094727 0.077578
2445.023438 0.080067
2444.251953 0.071159
2444.169922 0.069515
2443.409180 0.072568
2443.315430 0.077221
2442.566406 0.064730
2442.460938 0.072290
2441.723633 0.076096
2441.606445 0.076482
2440.879883 0.081770
2440.751953 0.060330
2440.037109 0.069669
2439.897461 0.064523
2439.193359 0.061127
2439.041992 0.071520
2438.349609 0.067511
2438.186523 0.074307
2437.505859 0.086682
2437.331055 0.062375
2436.662109 0.076010
2436.475586 0.067965
2435.817383 0.068893
2435.619141 0.070751
2434.973633 0.070300
2434.763672 0.067933
2434.128906 0.063187
2433.907227 0.063716
2433.284180 0.065305
2433.050781 0.062301
2432.439453 0.075938
2432.194336 0.061586
2431.593750 0.068827
2431.336914 0.066469
2430.749023 0.073071
2430.479492 0.064354
2429.903320 0.070220
2429.622070 0.063640
2429.058594 0.064533
2428.764648 0.070616
2428.212891 0.070193
2427.907227 0.065007
2427.367188 0.072306
2427.048828 0.066389
2426.520508 0.073001
2426.191406 0.060085
2425.674805 0.065192
2425.333008 0.069151
2424.828125 0.077224
2424.473633 0.067040
2423.982422 0.064459
2423.615234 0.071911
2423.135742 0.075070
2422.755859 0.061424
2422.289063 0.066559
2421.897461 0.078157
2421.441406 0.068670
2421.038086 0.056510
2420.594727 0.070072
2420.177734 0.080909
2419.747070 0.077843
2419.318359 0.059272
2418.900391 0.072876
2418.458008 0.063441
2418.052734 0.055884
2417.597656 0.074577
2417.205078 0.076384
2416.737305 0.055745
2416.356445 0.070712
2415.876953 0.071755
2415.508789 0.069285
2415.015625 0.067559
2414.660156 0.068565
2414.155273 0.066846
2413.812500 0.079152
2413.293945 0.068222
2412.963867 0.069245
2412.115234 0.065699
2411.266602 0.064980
2410.416992 0.069911
2409.568359 0.078370
2408.718750 0.060002
2407.869141 0.070577
2407.019531 0.067035
2406.169922 0.068433
2405.319336 0.067009
2404.469727 0.067701
2403.619141 0.064163
2402.768555 0.069790
2401.917969 0.068367
2401.066406 0.080333
2400.215820 0.077500
2399.364258 0.065510
2398.513672 0.069723
2397.662109 0.072526
2396.810547 0.065472
2395.958008 0.070386
2395.106445 0.068261
2394.253906 0.072470
2393.402344 0.064718
2392.549805 0.074551
2391.697266 0.071724
2390.843750 0.068195
2389.991211 0.070291
2389.137695 0.081521
2388.284180 0.066048
2387.430664 0.066035
2386.577148 0.075855
2385.723633 0.065307
2384.869141 0.072315
2384.015625 0.080724
2383.161133 0.071585
2382.306641 0.064554
2381.452148 0.069453
2380.597656 0.072245
2379.742188 0.065218
2378.886719 0.070113
2378.032227 0.072203
2377.176758 0.068684
2376.320313 0.071474
2375.464844 0.060951
2374.609375 0.071446
2373.752930 0.070732
2372.896484 0.068617
2372.040039 0.067904
2371.183594 0.069990
2370.326172 0.062979
2369.469727 0.075560
2368.612305 0.076245
2367.754883 0.062243
2366.897461 0.081809
2366.040039 0.067811
2365.182617 0.071991
2364.324219 0.069881
2363.465820 0.068470
2362.607422 0.078934
2361.749023 0.085205
2360.890625 0.064240
2360.031250 0.086567
2359.172852 0.076779
2358.313477 0.065598
2357.454102 0.080237
2356.594727 0.078129
2355.735352 0.071836
2354.875000 0.071822
2354.015625 0.071808
2353.155273 0.075279
2352.294922 0.071780
2351.434570 0.066192
2350.573242 0.080808
2349.712891 0.071737
2348.851563 0.066849
2347.990234 0.064051
2347.128906 0.070999
2346.267578 0.086991
2345.406250 0.083495
2344.543945 0.070261
2343.681641 0.070943
2342.819336 0.065366
2341.957031 0.071610
2341.094727 0.076462
2340.232422 0.077837
2339.369141 0.071568
2338.505859 0.074332
2337.642578 0.071540
2336.779297 0.083331
2335.916016 0.070817
2335.051758 0.077050
2334.188477 0.083281
2333.324219 0.079101
2332.459961 0.074923
2331.595703 0.077683
2330.730469 0.074894
2329.866211 0.071412
2329.000977 0.076944
2328.135742 0.073463
2327.270508 0.071370
2326.405273 0.083133
2325.540039 0.085887
2324.673828 0.078945
2323.807617 0.070621
2322.941406 0.080298
2322.075195 0.078898
2321.208984 0.092721
2320.341797 0.078866
2319.475586 0.075392
2318.608398 0.071228
2317.741211 0.071214
2316.874023 0.076039
2316.005859 0.087081
2315.138672 0.077390
2314.270508 0.078757
2313.402344 0.071143
2312.534180 0.073891
2311.666016 0.080781
2310.797852 0.075933
2309.928711 0.082129
2309.059570 0.084183
2308.190430 0.075197
2307.321289 0.078631
2306.452148 0.086201
2305.582031 0.090321
2304.712891 0.081341
2303.842773 0.066163
2302.972656 0.084754
2302.102539 0.080604
2301.231445 0.083343
2300.361328 0.079883
2299.490234 0.086063
2298.619141 0.081916
2297.748047 0.076394
2296.876953 0.080507
2296.004883 0.083931
2295.133789 0.078411
2294.261719 0.087335
2293.389648 0.083880
2292.517578 0.083863
2291.645508 0.079036
2290.772461 0.088640
2289.899414 0.074882
2289.027344 0.088604
2288.153320 0.078286
2287.280273 0.079643
2286.407227 0.075508
2285.533203 0.082356
2284.660156 0.070675
2283.786133 0.096044
2282.911133 0.082307
2282.037109 0.078861
2281.163086 0.087758
2280.288086 0.072660
2279.413086 0.076072
2278.538086 0.090446
2277.663086 0.072616
2276.787109 0.080821
2275.912109 0.082174
2275.036133 0.077365
2274.160156 0.090355
2273.284180 0.085546
2272.408203 0.085529
2271.531250 0.090300
2270.655273 0.088230
2269.778320 0.084110
2268.901367 0.088878
2268.024414 0.082709
2267.146484 0.082008
2266.269531 0.081309
2265.391602 0.087440
2264.513672 0.096302
2263.635742 0.088771
2262.757813 0.065540
2261.878906 0.098291
2261.000000 0.092129
2260.122070 0.083240
2259.243164 0.075720
2258.363281 0.083889
2257.484375 0.092054
2256.604492 0.072265
2255.725586 0.092017
2254.845703 0.092680
2253.965820 0.084485
2253.084961 0.085830
2252.205078 0.089899
2251.324219 0.081029
2250.443359 0.084417
2249.562500 0.088483
2248.681641 0.089826
2247.800781 0.089128
2246.918945 0.091150
2246.037109 0.087731
2245.155273 0.091113
2244.273438 0.090415
2243.391602 0.087678
2242.509766 0.093776
2241.626953 0.081528
2240.744141 0.093738
2239.861328 0.084211
2238.978516 0.092342
2238.094727 0.085534
2237.211914 0.086874
2236.328125 0.086857
2235.444336 0.084125
2234.560547 0.086821
2233.675781 0.084769
2232.791992 0.094244
2231.907227 0.083379
2231.022461 0.088106
2230.137695 0.091476
2229.252930 0.086715
2228.368164 0.088729
2227.482422 0.076522
2226.596680 0.085985
2225.710938 0.081906
2224.825195 0.087303
2223.938477 0.087962
2223.052734 0.087944
2222.166016 0.082515
2221.279297 0.098727
2220.392578 0.086538
2219.505859 0.085844
2218.618164 0.086502
2217.731445 0.089863
2216.843750 0.080387
2215.956055 0.090501
2215.068359 0.074952
2214.179688 0.087764
2213.291016 0.089096
2212.403320 0.085029
2211.514648 0.077590
2210.625977 0.087017
2209.736328 0.097116
2208.847656 0.080913
2207.958008 0.096402
2207.068359 0.094360
2206.178711 0.082885
2205.289063 0.090952
2204.398438 0.091607
2203.507813 0.094282
2202.618164 0.088876
2201.727539 0.083473
2200.835938 0.083456
2199.945313 0.087476
2199.053711 0.088130
2198.162109 0.081386
2197.270508 0.090112
2196.378906 0.085387
2195.487305 0.092091
2194.594727 0.091400
2193.703125 0.088022
2192.810547 0.097408
2191.917969 0.094030
2191.024414 0.087296
2190.131836 0.093991
2189.238281 0.086588
2188.344727 0.095966
2187.451172 0.083869
2186.557617 0.089889
2185.664063 0.082493
2184.769531 0.095886
2183.875000 0.088492
2182.980469 0.093836
2182.085938 0.087115
2181.191406 0.094467
2180.295898 0.091768
2179.400391 0.087061
2178.504883 0.087043
2177.609375 0.095058
2176.713867 0.084330
2175.817383 0.093681
2174.921875 0.094330
2174.025391 0.098324
2173.128906 0.089610
2172.231445 0.099620
2171.334961 0.099599
2170.437500 0.080866
2169.540039 0.094881
2168.642578 0.082837
2167.745117 0.082819
2166.847656 0.096157
2165.949219 0.092799
2165.050781 0.086773
2164.152344 0.090759
2163.253906 0.102082
2162.354492 0.094056
2161.456055 0.086700
2160.556641 0.090016
2159.657227 0.094664
2158.757813 0.094644
2157.858398 0.089294
2156.958008 0.097270
2156.057617 0.093253
2155.157227 0.097229
2154.256836 0.097875
2153.356445 0.088535
2152.456055 0.091844
2151.554688 0.092490
2150.653320 0.101119
2149.751953 0.096442
2148.850586 0.091102
2147.948242 0.085100
2147.045898 0.087741
2146.144531 0.089716
2145.242188 0.088369
2144.338867 0.100971
2143.436523 0.086339
2142.533203 0.092961
2141.629883 0.095597
2140.726563 0.099559
2139.823242 0.091576
2138.919922 0.095537
2138.015625 0.098834
2137.111328 0.098813
2136.207031 0.098792
2135.302734 0.095457
2134.398438 0.086821
2133.493164 0.100718
2132.588867 0.096059
2131.683594 0.101338
2130.778320 0.104628
2129.872070 0.099971
2128.966797 0.099288
2128.060547 0.099929
2127.154297 0.095277
2126.248047 0.109810
2125.341797 0.096559
2124.434570 0.097861
2123.527344 0.110401
2122.620117 0.110378
2121.712891 0.085905
2120.805664 0.106368
2119.897461 0.099079
2118.990234 0.094436
2118.082031 0.102339
2117.173828 0.101657
2116.265625 0.108235
2115.356445 0.096995
2114.447266 0.101593
2113.539063 0.101571
2112.628906 0.101550
2111.719727 0.101529
2110.810547 0.101507
2109.900391 0.102145
2108.990234 0.102123
2108.080078 0.094855
2107.169922 0.101421
2106.258789 0.103375
2105.348633 0.102695
2104.437500 0.109913
2103.526367 0.096071
2102.615234 0.096051
2101.703125 0.112474
2100.791992 0.103901
2099.879883 0.088100
2098.967773 0.105829
2098.055664 0.104492
2097.142578 0.099214
2096.230469 0.106419
2095.317383 0.114277
2094.404297 0.101777
2093.490234 0.107664
2092.577148 0.114205
2091.663086 0.092525
2090.750000 0.091194
2089.835938 0.102325
2088.920898 0.100992
2088.006836 0.106215
2087.091797 0.104882
2086.177734 0.096340
2085.262695 0.102216
2084.346680 0.101539
2083.431641 0.101518
2082.515625 0.107389
2081.600586 0.101474
2080.684570 0.104071
2079.767578 0.094233
2078.851563 0.102718
2077.934570 0.108583
2077.017578 0.108560
2076.100586 0.099383
2075.183594 0.097400
2074.266602 0.109144
2073.348633 0.113694
2072.430664 0.098645
2071.512695 0.105808
2070.594727 0.108397
2069.676758 0.103151
2068.757813 0.107045
2067.838867 0.102454
2066.919922 0.111567
2066.000977 0.117413
2065.082031 0.114779
2064.162109 0.110191
2063.242188 0.108211
2062.322266 0.111447
2061.402344 0.107513
2060.481445 0.108793
2059.561523 0.115934
2058.640625 0.113305
2057.719727 0.117187
2056.798828 0.094380
2055.876953 0.108026
2054.956055 0.113858
2054.034180 0.113833
2053.112305 0.106655
2052.189453 0.111183
2051.267578 0.113760
2050.344727 0.105936
2049.421875 0.105913
2048.499023 0.110438
2047.576172 0.118208
2046.652344 0.102598
2045.729492 0.096084
2044.805664 0.110992
2043.881836 0.108372
2042.957031 0.105105
2042.033203 0.112217
2041.108398 0.120623
2040.183594 0.112817
2039.258789 0.101124
2038.333984 0.107583
2037.408203 0.110152
2036.483398 0.113367
2035.557617 0.106866
2034.630859 0.117851
2033.705078 0.115235
2032.778320 0.111974
2031.852539 0.115185
2030.925781 0.120446
2030.818359 0.108044
2029.999023 0.108142
2029.892578 0.116429
2029.071289 0.115894
2028.965820 0.114464
2028.144531 0.108106
2028.040039 0.107973
2027.216797 0.124268
2027.113281 0.116353
2026.289063 0.121659
2026.186523 0.113097
2025.361328 0.108051
2025.260742 0.115656
2024.432617 0.111914
2024.333008 0.105942
2023.503906 0.120950
2023.406250 0.120127
2022.576172 0.106056
2022.479492 0.112352
2021.647461 0.128021
2021.551758 0.112328
2020.717773 0.106020
2020.624023 0.118758
2019.789063 0.113112
2019.696289 0.120022
2018.859375 0.111800
2018.768555 0.112900
2017.929688 0.113073
2017.840820 0.119970
2017.000000 0.114346
2016.913086 0.129617
2016.070313 0.113034
2015.984375 0.113470
2015.139648 0.111077
2015.055664 0.123114
2014.209961 0.112350
2014.126953 0.114710
2013.279297 0.113622
2013.198242 0.111463
2012.348633 0.129739
2012.269531 0.119813
2011.416992 0.111001
2011.340820 0.116567
2010.486328 0.123242
2010.411133 0.137145
2009.554688 0.107737
2009.482422 0.121665
2008.623047 0.115459
2008.552734 0.122282
2007.691406 0.110925
2007.623047 0.124186
2006.759766 0.109616
2006.692383 0.117726
2005.827148 0.115399
2005.762695 0.118986
2004.894531 0.121181
2004.833008 0.118960
2003.961914 0.105692
2003.902344 0.111862
2003.029297 0.125005
2002.971680 0.122122
2002.096680 0.123695
2002.041016 0.116311
2001.163086 0.124317
2001.110352 0.117571
2000.229492 0.119144
2000.178711 0.125253
1999.295898 0.119767
1999.248047 0.131005
1998.362305 0.117171
1998.316406 0.116851
1997.427734 0.120369
1997.384766 0.120035
1996.494141 0.119061
1996.453125 0.116800
1995.559570 0.120970
1995.521484 0.112283
1994.625000 0.110656
1994.589844 0.121880
1993.689453 0.124788
1993.657227 0.124419
1992.754883 0.116405
1992.724609 0.128238
1991.819336 0.130531
1991.792969 0.114748
1990.883789 0.109935
1990.860352 0.111518
1989.948242 0.109916
1989.926758 0.125591
1989.012695 0.120822
1988.994141 0.124922
1988.076172 0.116946
1988.061523 0.121692
1987.139648 0.116283
1987.127930 0.126148
1986.203125 0.122043
1986.194336 0.124199
1985.266602 0.120095
1985.260742 0.114571
1984.330078 0.125211
1984.327148 0.115825
1983.392578 0.128399
1983.392578 0.124117
1982.458984 0.125809
1982.455078 0.126648
1981.524414 0.121936
1981.517578 0.124702
1980.589844 0.127689
1980.580078 0.134264
1979.655273 0.125101
1979.641602 0.120172
1978.720703 0.124437
1978.703125 0.120784
1977.786133 0.121208
1977.765625 0.120119
1976.850586 0.121187
1976.826172 0.126480
1975.915039 0.118601
1975.887695 0.121343
1974.979492 0.121785
1974.948242 0.123870
1974.043945 0.129454
1974.009766 0.134056
1973.108398 0.115975
1973.070313 0.123815
1972.172852 0.117876
1972.130859 0.136549
1971.236328 0.121699
1971.190430 0.124398
1970.299805 0.130642
1970.250000 0.124370
1969.363281 0.115893
1969.310547 0.119241
1968.426758 0.116512
1968.370117 0.124952
1967.490234 0.140814
1967.428711 0.131935
1966.553711 0.120950
1966.488281 0.126808
1965.616211 0.127327
1965.546875 0.126780
1964.678711 0.123466
1964.605469 0.125478
1963.741211 0.129840
1963.664063 0.138186
1962.803711 0.129816
1962.722656 0.129878
1961.866211 0.116366
1961.780273 0.128576
1960.928711 0.123377
1960.837891 0.131730
1959.990234 0.127190
1959.895508 0.127883
1959.051758 0.136114
1958.953125 0.129762
1958.113281 0.132895
1958.010742 0.133549
1957.174805 0.132232
1957.067383 0.125890
1956.236328 0.132208
1956.124023 0.132854
1955.296875 0.135377
1955.180664 0.124562
1954.357422 0.134076
1954.237305 0.135971
1953.418945 0.126392
1953.292969 0.128318
1952.479492 0.135942
1952.349609 0.120668
1951.539063 0.127622
1951.405273 0.133975
1950.599609 0.130151
1950.460938 0.128866
1949.660156 0.135869
1949.515625 0.127568
1948.719727 0.133293
1948.571289 0.125001
1947.779297 0.136457
1947.625977 0.117361
1946.838867 0.126232
1946.680664 0.131922
1945.898438 0.134495
1945.735352 0.138867
1944.957031 0.130647
1944.789063 0.136300
1944.016602 0.133172
1943.842773 0.138805
1943.075195 0.128688
1942.896484 0.131803
1942.133789 0.135035
1941.950195 0.130506
1941.192383 0.133099
1941.003906 0.137444
1940.250977 0.133712
1940.056641 0.126015
1939.308594 0.144510
1939.110352 0.143080
1938.366211 0.147030
1938.163086 0.142415
1937.424805 0.138094
1937.215820 0.146180
1936.482422 0.146976
1936.267578 0.135391
1935.539063 0.133590
1935.319336 0.142951
1934.596680 0.132930
1934.372070 0.144816
1933.654297 0.133541
1933.422852 0.143519
1932.710938 0.131609
1932.474609 0.148543
1931.767578 0.136035
1931.526367 0.136502
1930.824219 0.128383
1930.577148 0.144053
1929.880859 0.129631
1929.627930 0.137704
1928.936523 0.141678
1928.678711 0.142725
1927.993164 0.136571
1927.728516 0.142692
1927.048828 0.138451
1926.779297 0.138241
1926.104492 0.128901
1925.829102 0.141365
1925.160156 0.146653
1924.878906 0.133762
1924.215820 0.136470
1923.928711 0.130578
1923.270508 0.133906
1922.977539 0.133071
1922.326172 0.140861
1922.026367 0.141868
1921.380859 0.142739
1921.075195 0.137423
1920.435547 0.136369
1920.124023 0.134870
1919.490234 0.130637
1919.172852 0.127279
1918.543945 0.143928
1918.220703 0.139849
1917.598633 0.133758
1917.268555 0.138557
1916.652344 0.140705
1916.316406 0.137266
1915.706055 0.140679
1915.364258 0.135976
1914.759766 0.136852
1914.411133 0.142239
1913.813477 0.154563
1913.458984 0.154162
1912.866211 0.145668
1912.505859 0.138399
1911.919922 0.124111
1911.552734 0.148431
1910.972656 0.150045
1910.598633 0.138965
1910.025391 0.144321
1909.645508 0.132018
1909.078125 0.125941
1908.691406 0.135759
1908.129883 0.151227
1907.737305 0.147667
1907.182617 0.146138
1906.782227 0.140094
1906.234375 0.133461
1905.828125 0.152624
1905.286133 0.146084
1904.873047 0.135634
1904.337891 0.135308
1903.917969 0.148787
1903.389648 0.144133
1902.962891 0.139338
1902.440430 0.138417
1902.006836 0.144954
1901.492188 0.145975
1901.051758 0.148057
1900.542969 0.148475
1900.095703 0.140496
1899.593750 0.143393
1899.139648 0.142345
1898.644531 0.140209
1898.183594 0.141686
1897.695313 0.150286
1897.226563 0.141026
1896.745117 0.154046
1896.269531 0.147887
1895.794922 0.141392
1895.312500 0.150985
1894.844727 0.141366
1894.355469 0.143434
1893.894531 0.156483
1893.398438 0.147159
1892.944336 0.156453
1892.440430 0.154637
1891.994141 0.138133
1891.482422 0.144587
1891.042969 0.151980
1890.524414 0.147682
1890.091797 0.141233
1889.566406 0.142018
1889.140625 0.150662
1888.607422 0.150742
1888.189453 0.150004
1887.648438 0.136949
1887.238281 0.143044
1886.689453 0.140044
1886.286133 0.136717
1885.730469 0.141261
1885.334961 0.151179
1884.770508 0.152477
1884.382813 0.145482
1883.811523 0.149942
1883.430664 0.142936
1882.851563 0.138665
1882.477539 0.141650
1881.891602 0.139881
1881.525391 0.142882
1880.930664 0.141722
1880.572266 0.141596
1879.970703 0.149179
1879.619141 0.136536
1879.009766 0.144152
1878.666016 0.140914
1878.048828 0.132265
1877.712891 0.155353
1877.086914 0.140343
1876.759766 0.142118
1876.125977 0.154653
1875.805664 0.145235
1875.164063 0.147135
1874.852539 0.145207
1874.202148 0.155204
1873.898438 0.156492
1873.240234 0.152675
1872.943359 0.148294
1872.277344 0.142672
1871.989258 0.150150
1871.315430 0.136410
1871.035156 0.136303
1870.352539 0.139491
1870.080078 0.155745
1869.389648 0.156891
1869.125000 0.137507
1868.425781 0.149385
1868.169922 0.144386
1867.462891 0.153706
1867.214844 0.155656
1866.499023 0.150560
1866.258789 0.144331
1865.535156 0.139950
1865.303711 0.136775
1864.570313 0.153598
1864.347656 0.154940
1863.606445 0.159158
1863.391602 0.153029
1862.641602 0.149797
1862.435547 0.143594
1861.676758 0.145412
1861.479492 0.146701
1860.711914 0.138525
1860.522461 0.154076
1859.746094 0.154165
1859.565430 0.156524
1858.781250 0.150377
1858.608398 0.151520
1857.815430 0.138445
1857.651367 0.150242
1856.849609 0.141550
1856.694336 0.147103
1855.882813 0.142776
1855.736328 0.142725
1854.916992 0.143374
1854.779297 0.147034
1853.950195 0.128950
1853.821289 0.152582
1852.983398 0.143945
1852.863281 0.145105
1852.015625 0.135157
1851.905273 0.156230
1851.048828 0.162033
1850.946289 0.145656
1850.081055 0.150743
1849.988281 0.141904
1849.113281 0.146961
1849.029297 0.146207
1848.145508 0.163190
1848.070313 0.150508
1847.176758 0.144404
1847.111328 0.156665
1846.208008 0.168127
1846.151367 0.157866
1845.239258 0.154972
1845.192383 0.167112
1844.270508 0.143071
1844.232422 0.159647
1843.301758 0.157411
1843.272461 0.154660
1842.332031 0.154882
1842.312500 0.165757
1841.362305 0.169214
1841.352539 0.164481
1840.392578 0.152949
1840.391602 0.164442
1839.430664 0.165403
1839.422852 0.161930
1838.470703 0.181596
1838.452148 0.158184
1837.508789 0.187176
1837.481445 0.172355
1836.547852 0.155950
1836.510742 0.164903
1835.586914 0.172136
1835.540039 0.166099
1834.625000 0.168361
1834.568359 0.175319
1833.663086 0.172692
1833.597656 0.171574
1832.701172 0.177646
1832.625000 0.169682
1831.739258 0.173872
1831.653320 0.181979
1830.777344 0.166361
1830.681641 0.166518
1829.814453 0.178165
1829.708984 0.176960
1828.851563 0.186850
1828.736328 0.162123
1827.888672 0.165019
1827.763672 0.168863
1826.925781 0.169968
1826.790039 0.174984
1825.962891 0.172424
1825.817383 0.163855
1824.999023 0.177992
1824.843750 0.155809
1824.035156 0.167380
1823.869141 0.172396
1823.071289 0.183522
1822.895508 0.168046
1822.107422 0.164204
1821.920898 0.161851
1821.143555 0.172257
1820.947266 0.177809
1820.178711 0.168493
1819.971680 0.164234
1819.214844 0.185244
1818.997070 0.181414
1818.250000 0.174642
1818.021484 0.160466
1817.285156 0.164044
1817.046875 0.162886
1816.319336 0.155936
1816.070313 0.171450
1815.354492 0.173297
1815.094727 0.152364
1814.388672 0.167674
1814.119141 0.157855
1813.422852 0.159570
1813.142578 0.164572
1812.457031 0.176920
1812.166016 0.157779
1811.491211 0.170058
1811.188477 0.167561
1810.525391 0.168164
1810.211914 0.176725
1809.558594 0.171233
1809.234375 0.164413
1808.591797 0.160034
1808.256836 0.163760
1807.625000 0.162483
1807.279297 0.174144
1806.658203 0.172372
1806.300781 0.171037
1805.690430 0.159940
1805.322266 0.151996
1804.723633 0.163627
1804.343750 0.167890
1803.755859 0.159257
1803.365234 0.169074
1802.788086 0.174095
1802.386719 0.158009
1801.820313 0.162292
1801.407227 0.172666
1800.851563 0.178981
1800.427734 0.172012
1799.883789 0.162228
1799.448242 0.168910
1798.915039 0.173958
1798.467773 0.165810
1797.946289 0.160926
1797.488281 0.174333
1796.977539 0.170796
1796.507813 0.158390
1796.007813 0.175093
1795.527344 0.174248
1795.039063 0.172584
1794.545898 0.163814
1794.069336 0.181827
1793.564453 0.166219
1793.099609 0.184265
1792.583008 0.175953
1792.129883 0.175573
1791.601563 0.177743
1791.160156 0.188518
1790.620117 0.165486
1790.189453 0.170560
1789.637695 0.172161
1789.218750 0.185355
1788.655273 0.166626
1788.248047 0.176052
1787.672852 0.183061
1787.277344 0.171076
1786.690430 0.179966
1786.306641 0.190185
1785.707031 0.187850
1785.334961 0.179034
1784.723633 0.192682
1784.364258 0.188258
1783.740234 0.176785
1783.392578 0.188220
1782.756836 0.185274
1782.420898 0.188800
1781.772461 0.176698
1781.448242 0.188763
1780.788086 0.178482
1780.476563 0.188108
1779.803711 0.187573
1779.503906 0.183755
1778.819336 0.186309
1778.531250 0.189267
1777.833984 0.177741
1777.558594 0.189229
1776.848633 0.171003
1776.585938 0.184261
1775.863281 0.178870
1775.612305 0.199628
1774.877930 0.174568
1774.638672 0.194660
1773.891602 0.167836
1773.666016 0.180456
1772.905273 0.189073
1772.691406 0.197662
1771.918945 0.199966
1771.717773 0.193929
1770.931641 0.179733
1770.744141 0.196879
1769.945313 0.191390
1769.769531 0.190147
1768.958008 0.192582
1768.794922 0.190708
1767.970703 0.196850
1767.820313 0.188231
1766.982422 0.194966
1766.845703 0.190613
1765.995117 0.196772
1765.870117 0.196028
1765.006836 0.193044
1764.894531 0.195372
1764.018555 0.189317
1763.919922 0.197750
1763.029297 0.205257
1762.944336 0.177688
1762.041016 0.195386
1761.967773 0.175218
1761.051758 0.196575
1760.992188 0.180630
1760.062500 0.195307
1760.015625 0.193311
1759.072266 0.206321
1759.039063 0.178722
1758.083008 0.201983
1758.062500 0.185946
1757.092773 0.199487
1757.085938 0.186505
1756.108398 0.213562
1756.101563 0.194328
1755.131836 0.206770
1755.111328 0.197911
1754.154297 0.197527
1754.120117 0.186365
1753.176758 0.203007
1753.128906 0.204466
1752.198242 0.200514
1751.220703 0.205991
1750.242188 0.193691
1749.263672 0.199780
1748.285156 0.197289
1747.306641 0.193574
1746.327148 0.197822
1745.348633 0.204518
1744.369141 0.198967
1743.389648 0.177504
1742.409180 0.192156
1741.429688 0.212919
1740.449219 0.202477
1739.468750 0.204271
1738.488281 0.197504
1737.507813 0.196242
1736.526367 0.208427
1735.544922 0.192496
1734.563477 0.210786
1733.582031 0.209522
1732.600586 0.218641
1731.618164 0.201500
1730.636719 0.214279
1729.654297 0.208742
1728.671875 0.198937
1727.688477 0.220860
1726.706055 0.206786
1725.722656 0.211623
1724.739258 0.204263
1723.755859 0.203612
1722.771484 0.214542
1721.788086 0.202311
1720.803711 0.213846
1719.819336 0.220503
1718.834961 0.217413
1717.850586 0.199103
1716.865234 0.204541
1715.879883 0.195979
1714.894531 0.214194
1713.909180 0.218409
1712.923828 0.223839
1711.937500 0.215888
1710.951172 0.217668
1709.964844 0.220055
1708.978516 0.203601
1707.991211 0.207205
1707.004883 0.214453
1706.017578 0.217447
1705.030273 0.220439
1704.042969 0.220394
1703.054688 0.217314
1702.066406 0.220911
1701.078125 0.211764
1700.089844 0.217787
1699.101563 0.219562
1698.113281 0.211634
1697.124023 0.226748
1696.134766 0.238219
1695.145508 0.229080
1694.155273 0.233274
1693.166016 0.235650
1692.175781 0.217432
1691.185547 0.225865
1690.195313 0.236110
1689.205078 0.225167
1688.213867 0.229357
1687.222656 0.222654
1686.231445 0.226843
1685.240234 0.230425
1684.249023 0.215261
1683.256836 0.221263
1682.264648 0.215778
1681.272461 0.222381
1680.280273 0.224147
1679.287109 0.244035
1678.294922 0.219224
1677.301758 0.223405
1676.308594 0.208871
1675.315430 0.230556
1674.321289 0.227492
1673.327148 0.222618
1672.333008 0.220763
1671.338867 0.215290
1670.344727 0.214643
1669.349609 0.233888
1668.355469 0.222389
1667.360352 0.225356
1666.365234 0.243383
1665.369141 0.224661
1664.374023 0.239067
1663.377930 0.242028
1662.381836 0.244386
1661.384766 0.232901
1660.388672 0.222624
1659.391602 0.253860
1658.395508 0.232155
1657.397461 0.240526
1656.400391 0.250095
1655.403320 0.254251
1654.405273 0.238574
1653.407227 0.240327
1652.409180 0.248687
1651.411133 0.259446
1650.412109 0.242579
1649.413086 0.253335
1648.414063 0.241278
1647.415039 0.256230
1646.416016 0.256177
1645.416016 0.241728
1644.416016 0.266266
1643.416016 0.251821
1642.416016 0.261360
1641.415039 0.253514
1640.415039 0.251664
1639.414063 0.248017
1638.413086 0.258148
1637.411133 0.260489
1636.410156 0.272409
1635.408203 0.267564
1634.406250 0.266910
1633.404297 0.273436
1632.402344 0.257228
1631.399414 0.258370
1630.396484 0.271471
1629.393555 0.267828
1628.390625 0.271956
1627.387695 0.266521
1626.383789 0.280207
1625.379883 0.275967
1624.375977 0.281882
1623.372070 0.278240
1622.367188 0.287137
1621.362305 0.288867
1620.357422 0.272696
1619.352539 0.268463
1618.347656 0.266021
1617.341797 0.285644
1616.335938 0.276045
1615.330078 0.282545
1614.324219 0.281294
1613.318359 0.298514
1612.311523 0.286537
1611.304688 0.276948
1610.297852 0.303090
1609.291016 0.278023
1608.283203 0.299392
1607.275391 0.289808
1606.267578 0.281418
1605.259766 0.297419
1604.251953 0.280110
1603.243164 0.296105
1602.234375 0.287721
1601.225586 0.273396
1600.216797 0.300079
1599.207031 0.277440
1598.198242 0.295795
1597.188477 0.304640
1596.178711 0.284390
1595.167969 0.300357
1594.158203 0.306229
1593.147461 0.308538
1592.136719 0.300761
1591.125977 0.294174
1590.114258 0.291740
1589.103516 0.280414
1588.091797 0.283319
1587.080078 0.284444
1586.067383 0.284385
1585.055664 0.271885
1584.042969 0.275974
1583.030273 0.271771
1582.017578 0.282369
1581.003906 0.276391
1579.991211 0.275149
1578.977539 0.276866
1577.963867 0.281539
1576.949219 0.266105
1575.935547 0.258954
1574.920898 0.269539
1573.906250 0.284256
1572.891602 0.280651
1571.876953 0.264642
1570.861328 0.268720
1569.845703 0.265711
1568.830078 0.266836
1567.814453 0.267370
1566.797852 0.269083
1565.782227 0.258997
1564.765625 0.268379
1563.749023 0.254759
1562.731445 0.268266
1561.714844 0.259367
1560.697266 0.262848
1559.679688 0.259257
1558.662109 0.255667
1557.643555 0.254435
1556.625000 0.267924
1555.607422 0.266101
1554.587891 0.272520
1553.569336 0.255984
1552.549805 0.250635
1551.531250 0.259405
1550.511719 0.252293
1549.491211 0.244008
1548.471680 0.258064
1547.451172 0.266237
1546.430664 0.277345
1545.410156 0.253787
1544.389648 0.243161
1543.368164 0.273644
1542.346680 0.267128
1541.325195 0.258854
1540.303711 0.269362
1539.282227 0.262264
1538.259766 0.261034
1537.237305 0.258633
1536.214844 0.267373
1535.191406 0.254419
1534.168945 0.267259
1533.145508 0.247279
1532.122070 0.256600
1531.098633 0.266502
1530.074219 0.257661
1529.050781 0.252337
1528.026367 0.252283
1527.000977 0.263348
1525.976563 0.265632
1524.951172 0.238667
1523.926758 0.253822
1522.901367 0.264292
1521.875000 0.261313
1520.849609 0.248983
1519.823242 0.278147
1518.796875 0.279840
1517.770508 0.249407
1516.743164 0.256945
1515.716797 0.259226
1514.689453 0.254500
1513.662109 0.272537
1512.634766 0.265477
1511.606445 0.260753
1510.578125 0.267113
1509.549805 0.254810
1508.521484 0.272245
1507.493164 0.286757
1506.463867 0.277372
1505.434570 0.274400
1504.405273 0.265604
1503.375977 0.262052
1502.345703 0.271311
1501.315430 0.274746
1500.285156 0.267121
1499.254883 0.281028
1498.223633 0.268169
1497.193359 0.264622
1496.162109 0.269217
1495.130859 0.261601
1494.098633 0.267938
1493.067383 0.269043
1492.035156 0.274794
1491.002930 0.276478
1489.969727 0.258997
1488.937500 0.268811
1487.904297 0.263529
1486.871094 0.255347
1485.837891 0.273278
1484.803711 0.263938
1483.770508 0.243002
1482.736328 0.258026
1481.702148 0.278260
1480.666992 0.277040
1479.632813 0.261914
1478.597656 0.282134
1477.562500 0.258326
1476.527344 0.277380
1475.491211 0.272688
1474.455078 0.284784
1473.418945 0.265625
1472.382813 0.262096
1471.346680 0.277658
1470.309570 0.267766
1469.272461 0.274646
1468.235352 0.271696
1467.198242 0.287242
1466.160156 0.275623
1465.122070 0.262276
1464.083984 0.291676
1463.045898 0.271402
1462.006836 0.254023
1460.968750 0.274747
1459.929688 0.268339
1458.889648 0.262512
1457.850586 0.280913
1456.810547 0.282582
1455.771484 0.274448
1454.730469 0.283035
1453.690430 0.273753
1452.649414 0.286369
1451.609375 0.286307
1450.568359 0.282789
1449.526367 0.283303
1448.485352 0.291877
1447.443359 0.287784
1446.401367 0.311890
1445.359375 0.288809
1444.316406 0.288746
1443.274414 0.287533
1442.231445 0.298969
1441.188477 0.290856
1440.144531 0.306309
1439.101563 0.299348
1438.057617 0.316516
1437.013672 0.320467
1435.968750 0.309487
1434.924805 0.322049
1433.879883 0.333457
1432.834961 0.329941
1431.790039 0.344785
1430.744141 0.337253
1429.698242 0.349221
1428.653320 0.367490
1427.606445 0.362251
1426.560547 0.373633
1425.513672 0.383291
1424.466797 0.372896
1423.419922 0.357352
1422.373047 0.355556
1421.325195 0.344029
1420.277344 0.363984
1419.229492 0.340445
1418.181641 0.343231
1417.132813 0.357453
1416.084961 0.347082
1415.036133 0.322424
1413.986328 0.337214
1412.937500 0.345139
1411.887695 0.351348
1410.837891 0.357553
1409.788086 0.351193
1408.738281 0.344835
1407.687500 0.349326
1406.636719 0.347537
1405.585938 0.357730
1404.534180 0.346243
1403.483398 0.341604
1402.431641 0.335827
1401.379883 0.346014
1400.327148 0.324850
1399.275391 0.336175
1398.222656 0.326416
1397.169922 0.334887
1396.117188 0.315453
1395.063477 0.306275
1394.009766 0.341495
1392.956055 0.343126
1391.902344 0.320294
1390.848633 0.336149
1389.793945 0.331526
1388.739258 0.333158
1387.684570 0.354683
1386.628906 0.337556
1385.574219 0.329527
1384.518555 0.353311
1383.462891 0.361752
1382.406250 0.365078
1381.350586 0.371809
1380.293945 0.372861
1379.237305 0.370509
1378.179688 0.394819
1377.123047 0.386224
1376.065430 0.385004
1375.007813 0.404760
1373.949219 0.400703
1372.891602 0.411946
1371.833008 0.409589
1370.774414 0.405533
1369.715820 0.392985
1368.656250 0.382707
1367.596680 0.369037
1366.537109 0.357072
1365.477539 0.347940
1364.417969 0.346731
1363.357422 0.328558
1362.296875 0.336400
1361.236328 0.330672
1360.174805 0.335684
1359.113281 0.301145
1358.052734 0.342313
1356.990234 0.331506
1355.928711 0.324657
1354.866211 0.338132
1353.803711 0.323947
1352.741211 0.320489
1351.678711 0.335649
1350.615234 0.341778
1349.551758 0.345648
1348.488281 0.339370
1347.424805 0.335912
1346.360352 0.345416
1345.295898 0.333508
1344.231445 0.315973
1343.166992 0.333921
1342.101563 0.317520
1341.036133 0.316323
1339.970703 0.336510
1338.905273 0.351625
1337.838867 0.336922
1336.772461 0.336846
1335.706055 0.341830
1334.639648 0.363113
1333.572266 0.348982
1332.504883 0.350589
1331.437500 0.352195
1330.370117 0.366717
1329.302734 0.351475
1328.234375 0.373849
1327.166016 0.370398
1326.096680 0.361898
1325.028320 0.364060
1323.958984 0.383046
1322.889648 0.365017
1321.820313 0.367177
1320.750000 0.346918
1319.679688 0.355244
1318.609375 0.380373
1317.539063 0.348363
1316.468750 0.343805
1315.397461 0.331971
1314.326172 0.336933
1313.254883 0.348048
1312.182617 0.351326
1311.142578 0.339501
1311.110352 0.337685
1310.069336 0.341660
1310.038086 0.333771
1308.997070 0.329284
1308.965820 0.332594
1307.923828 0.325297
1307.892578 0.341477
1306.851563 0.314047
1306.820313 0.307889
1305.778320 0.320680
1305.747070 0.321800
1304.704102 0.317256
1304.672852 0.313923
1303.630859 0.321092
1303.599609 0.316659
1302.557617 0.309854
1302.525391 0.313810
1301.483398 0.300852
1301.451172 0.321570
1300.409180 0.316967
1300.376953 0.330443
1299.334961 0.314664
1299.301758 0.329825
1298.259766 0.321843
1298.227539 0.320838
1297.185547 0.325116
1297.152344 0.311296
1296.110352 0.322953
1296.076172 0.309431
1295.035156 0.299473
1295.000977 0.323296
1293.959961 0.320606
1293.924805 0.300931
1292.883789 0.311629
1292.848633 0.309777
1291.808594 0.335540
1291.772461 0.326417
1290.732422 0.337708
1290.695313 0.320217
1289.656250 0.323717
1289.618164 0.334063
1288.580078 0.327001
1288.541016 0.328977
1287.502930 0.338638
1287.463867 0.314432
1286.426758 0.347486
1286.386719 0.337172
1285.349609 0.348537
1285.308594 0.343771
1284.272461 0.348473
1284.230469 0.339243
1283.195313 0.333383
1283.152344 0.345282
1282.118164 0.331652
1282.073242 0.329082
1281.040039 0.338268
1280.994141 0.324005
1279.961914 0.327081
1279.915039 0.304484
1278.883789 0.310893
1278.835938 0.322190
1277.805664 0.311392
1277.755859 0.316007
1276.727539 0.321342
1276.676758 0.307606
1275.648438 0.301273
1275.596680 0.297544
1274.569336 0.297327
1274.515625 0.302470
1273.490234 0.286715
1273.435547 0.299627
1272.411133 0.307773
1272.354492 0.292901
1271.332031 0.308272
1271.273438 0.292279
1270.251953 0.282114
1270.191406 0.282786
1269.171875 0.322040
1269.110352 0.279949
1268.091797 0.299775
1268.028320 0.289861
1267.011719 0.285289
1266.946289 0.304755
1265.931641 0.299109
1265.864258 0.308563
1264.850586 0.304602
1264.781250 0.301846
1263.769531 0.286240
1263.698242 0.282950
1262.688477 0.283969
1262.615234 0.295617
1261.607422 0.295006
1261.532227 0.280606
1260.526367 0.298278
1260.448242 0.288288
1259.444336 0.300440
1259.364258 0.302605
1258.362305 0.300385
1258.280273 0.279859
1257.280273 0.280935
1257.196289 0.287535
1256.198242 0.291963
1256.111328 0.285811
1255.115234 0.288031
1255.026367 0.289613
1254.033203 0.300161
1253.941406 0.280705
1252.950195 0.296230
1252.856445 0.299424
1251.867188 0.290085
1251.770508 0.271739
1250.783203 0.312724
1250.684570 0.289346
1249.700195 0.299384
1249.598633 0.289279
1248.616211 0.319800
1248.511719 0.282037
1247.532227 0.280464
1247.425781 0.290249
1246.448242 0.298663
1246.338867 0.291285
1245.364258 0.302478
1245.250977 0.296181
1244.279297 0.299657
1244.164063 0.286739
1243.195313 0.299601
1243.076172 0.302108
1242.110352 0.304519
1241.988281 0.306999
1241.024414 0.303356
1240.900391 0.293703
1239.939453 0.308824
1239.812500 0.287574
1238.853516 0.309318
1238.723633 0.298523
1237.768555 0.301529
1237.634766 0.299555
1236.682617 0.288773
1236.544922 0.301688
1235.595703 0.300311
1235.456055 0.297765
1234.509766 0.300254
1234.366211 0.301548
1233.422852 0.301853
1233.276367 0.298177
1232.336914 0.300693
1232.186523 0.274457
1231.250000 0.293465
1231.095703 0.296388
1230.162109 0.285137
1230.004883 0.289172
1229.075195 0.293905
1228.914063 0.295151
1227.987305 0.295504
1227.823242 0.290136
1226.899414 0.291589
1226.731445 0.286223
1225.811523 0.297596
1225.639648 0.287255
1224.723633 0.295336
1224.547852 0.271264
1223.634766 0.279304
1223.456055 0.284376
1222.546875 0.289716
1222.363281 0.282663
1221.458008 0.292414
1221.270508 0.294120
1220.368164 0.292358
1220.177734 0.290760
1219.279297 0.300009
1219.084961 0.299467
1218.189453 0.275185
1217.991211 0.271980
1217.100586 0.302646
1216.897461 0.294393
1216.010742 0.300938
1215.803711 0.281170
1214.919922 0.272828
1214.708984 0.295899
1213.830078 0.301923
1213.614258 0.303500
1212.739258 0.296367
1212.519531 0.292474
1211.648438 0.308405
1211.424805 0.293501
1210.557617 0.329232
1210.329102 0.314783
1209.466797 0.315980
1209.234375 0.311972
1208.375977 0.334600
1208.138672 0.331598
1207.284180 0.319704
1207.041992 0.315655
1206.192383 0.310306
1205.946289 0.320503
1205.100586 0.296519
1204.849609 0.311132
1204.007813 0.327755
1203.752930 0.313246
1202.916016 0.314519
1202.655273 0.319730
1201.823242 0.311165
1201.558594 0.325666
1200.730469 0.312203
1200.460938 0.316302
1199.637695 0.320371
1199.362305 0.327697
1198.543945 0.321407
1198.264648 0.320521
1197.451172 0.320796
1197.166016 0.335731
1196.357422 0.322379
1196.067383 0.333469
1195.263672 0.329443
1194.968750 0.321386
1194.168945 0.351301
1193.870117 0.326765
1193.075195 0.347398
1192.770508 0.331051
1191.980469 0.355000
1191.670898 0.346240
1190.885742 0.343429
1190.570313 0.331439
1189.791016 0.359792
1189.470703 0.329181
1188.696289 0.360817
1188.370117 0.328558
1187.600586 0.340493
1187.269531 0.328480
1186.504883 0.327838
1186.167969 0.319144
1185.409180 0.329964
1185.067383 0.311990
1184.313477 0.321146
1183.965820 0.314638
1183.216797 0.321630
1182.864258 0.297692
1182.121094 0.318287
1181.761719 0.293813
1181.024414 0.289792
1180.659180 0.287760
1179.927734 0.293016
1179.556641 0.273008
1178.830078 0.289133
1178.454102 0.275118
1177.733398 0.287984
1177.351563 0.285380
1176.635742 0.285742
1176.248047 0.279878
1175.538086 0.273669
1175.144531 0.269488
1174.440430 0.263785
1174.040039 0.277572
1173.341797 0.268648
1172.936523 0.264472
1172.243164 0.265865
1171.832031 0.273096
1171.145508 0.265813
1170.727539 0.277916
1170.045898 0.276676
1169.622070 0.264283
1168.947266 0.265164
1168.517578 0.253369
1167.848633 0.283659
1167.412109 0.268496
1166.749023 0.265605
1166.306641 0.248367
1165.649414 0.255193
1165.200195 0.266199
1164.549805 0.262230
1164.093750 0.266678
1163.449219 0.246371
1162.987305 0.246564
1162.348633 0.265397
1161.880859 0.255173
1161.249023 0.271338
1160.773438 0.251320
1160.147461 0.265292
1159.666016 0.263715
1159.046875 0.238553
1158.558594 0.258779
1157.946289 0.251030
1157.451172 0.256011
1156.844727 0.261324
1156.342773 0.249997
1155.743164 0.254197
1155.234375 0.248314
1154.641602 0.259589
1154.125977 0.246632
1153.539063 0.252464
1153.017578 0.240084
1152.436523 0.256766
1151.908203 0.250838
1151.334961 0.255628
1150.798828 0.253480
1150.231445 0.250139
1149.689453 0.271251
1149.128906 0.237585
1148.579102 0.247416
1148.026367 0.254389
1147.468750 0.244116
1146.922852 0.257599
1146.358398 0.252696
1145.819336 0.266785
1145.248047 0.257494
1144.715820 0.247719
1144.136719 0.243939
1143.611328 0.261791
1143.025391 0.254132
1142.506836 0.259024
1141.914063 0.262162
1141.403320 0.260058
1140.801758 0.252392
1140.297852 0.265978
1139.689453 0.262575
1139.193359 0.276236
1138.577148 0.264667
1138.088867 0.259361
1137.464844 0.253286
1136.983398 0.258767
1136.351563 0.258613
1135.877930 0.248410
1135.239258 0.243468
1134.771484 0.267340
1134.125000 0.260103
1133.666016 0.260238
1133.011719 0.259502
1132.559570 0.253682
1131.897461 0.258901
1131.453125 0.250380
1130.783203 0.252918
1130.346680 0.247079
1129.668945 0.255547
1129.240234 0.263281
1128.553711 0.242576
1128.132813 0.260520
1127.439453 0.250045
1127.025391 0.245306
1126.324219 0.247834
1125.917969 0.242550
1125.208008 0.242399
1124.810547 0.246290
1124.092773 0.245564
1123.702148 0.254359
1122.976563 0.239058
1122.594727 0.273787
1121.859375 0.244371
1121.486328 0.251552
1120.743164 0.250754
1120.377930 0.263401
1119.625977 0.249620
1119.268555 0.249288
1118.508789 0.263512
1118.159180 0.255726
1117.391602 0.255400
1117.050781 0.263242
1116.273438 0.252655
1115.940430 0.266972
1115.155273 0.257957
1114.831055 0.266918
1114.037109 0.248243
1113.721680 0.254440
1112.918945 0.257294
1112.611328 0.245207
1111.799805 0.258303
1111.500977 0.250017
1110.680664 0.246453
1110.389648 0.248887
1109.561523 0.231930
1109.279297 0.238581
1108.441406 0.241513
1108.167969 0.246628
1107.321289 0.233958
1107.056641 0.246039
1106.201172 0.236577
1105.945313 0.238437
1105.081055 0.224211
1104.833984 0.230299
1103.959961 0.237531
1103.721680 0.228095
1102.838867 0.236403
1102.609375 0.232901
1101.717773 0.246504
1101.497070 0.236088
1100.595703 0.222387
1100.384766 0.226879
1099.473633 0.237297
1099.271484 0.226294
1098.351563 0.234033
1098.158203 0.220862
1097.229492 0.212607
1097.044922 0.226741
1096.106445 0.236588
1095.931641 0.221311
1094.983398 0.239199
1094.818359 0.222881
1093.860352 0.220991
1093.704102 0.224989
1092.737305 0.229475
1092.589844 0.230324
1091.613281 0.238488
1091.475586 0.234582
1090.489258 0.230962
1090.360352 0.251210
1089.364258 0.228238
1089.246094 0.230184
1088.240234 0.237245
1088.130859 0.230675
1087.115234 0.223861
1087.015625 0.224177
1085.989258 0.241390
1085.900391 0.231656
1084.864258 0.233339
1084.784180 0.218174
1083.738281 0.214640
1083.667969 0.237472
1082.612305 0.240146
1082.551758 0.216474
1081.486328 0.223584
1081.435547 0.222337
1080.359375 0.231511
1080.318359 0.225514
1079.232422 0.218152
1079.202148 0.223320
1078.105469 0.217033
1078.084961 0.240450
1076.977539 0.224957
1076.966797 0.220546
1075.849609 0.223306
1075.849609 0.230158
1074.731445 0.233349
1074.721680 0.231720
1073.613281 0.230103
1073.593750 0.226846
1072.495117 0.221013
1072.464844 0.228408
1071.376953 0.230506
1071.335938 0.215116
1070.257813 0.229923
1070.207031 0.224089
1069.138672 0.218623
1069.077148 0.227218
1068.019531 0.211613
1067.948242 0.211239
1066.900391 0.226567
1066.817383 0.224452
1065.781250 0.231876
1065.687500 0.219091
1064.661133 0.224333
1064.556641 0.219036
1063.541016 0.218399
1063.425781 0.222692
1062.419922 0.223170
1062.294922 0.224227
1061.299805 0.215634
1061.163086 0.220991
1060.178711 0.228963
1060.032227 0.229942
1059.057617 0.217684
1058.899414 0.224058
1057.936523 0.239029
1057.767578 0.216058
1056.815430 0.226149
1056.634766 0.216004
1055.693359 0.236258
1055.501953 0.230770
1054.571289 0.231400
1054.369141 0.232828
1053.449219 0.222269
1053.235352 0.240176
1052.327148 0.228633
1052.101563 0.234297
1051.204102 0.248347
1050.967773 0.234767
1050.081055 0.232811
1049.833984 0.235765
1048.958008 0.229026
1048.699219 0.240990
1047.834961 0.238586
1047.564453 0.234061
1046.710938 0.233734
1046.428711 0.234002
1045.586914 0.235819
1045.293945 0.218628
1044.462891 0.245372
1044.158203 0.224908
1043.338867 0.225056
1043.021484 0.227490
1042.213867 0.232474
1041.885742 0.236931
1041.089844 0.237757
1040.749023 0.235816
1039.964844 0.230779
1039.612305 0.221516
1038.838867 0.244585
1038.474609 0.244132
1037.713867 0.229085
1037.337891 0.230892
1036.587891 0.247680
1036.200195 0.233468
1035.461914 0.246563
1035.061523 0.242366
1034.335938 0.250772
1033.923828 0.227555
1033.209961 0.236347
1032.785156 0.228024
1032.083008 0.241620
1031.646484 0.231651
1030.956055 0.250615
1030.506836 0.229486
1029.829102 0.240456
1029.367188 0.225744
1028.701172 0.249979
1028.227539 0.251991
1027.574219 0.237165
1027.087891 0.244037
1026.446289 0.246685
1025.947266 0.254491
1025.318359 0.258328
1024.806641 0.240758
1024.189453 0.244988
1023.666016 0.243324
1023.061523 0.233248
1022.524414 0.245889
1021.932617 0.248605
1021.382813 0.235846
1020.803711 0.254395
1020.241211 0.234735
1019.674805 0.255404
1019.098633 0.244650
1018.544922 0.251103
1017.957031 0.252985
1017.415039 0.263259
1016.813477 0.223535
1016.285156 0.257897
1015.670898 0.246560
1015.155273 0.239274
1014.527344 0.241252
1014.024414 0.257789
1013.383789 0.252725
1012.894531 0.247129
1012.240234 0.233789
1011.763672 0.251319
1011.095703 0.236873
1010.631836 0.242785
1009.951172 0.241003
1009.500977 0.258104
1008.806641 0.240941
1008.369141 0.250631
1007.662109 0.236166
1007.237305 0.245281
1006.516602 0.254428
1006.105469 0.245230
1005.371094 0.241277
1004.972656 0.247297
1004.224609 0.251680
1003.840820 0.243539
1003.079102 0.234875
1002.708008 0.248781
1001.932617 0.245274
1001.575195 0.265663
1000.785156 0.242073
1000.441406 0.254496
999.638672 0.229988
999.307617 0.252856
998.491211 0.252399
998.173828 0.248572
997.342773 0.252856
997.040039 0.253807
996.195313 0.249134
995.906250 0.248996
995.046875 0.249069
994.771484 0.255286
993.898438 0.240652
993.636719 0.251533
992.749023 0.245808
992.501953 0.249896
991.599609 0.225918
991.367188 0.255125
990.450195 0.227423
990.231445 0.252431
989.300781 0.227886
989.095703 0.249210
987.959961 0.235960
986.824219 0.242244
985.687500 0.249580
984.550781 0.249527
983.414063 0.246837
982.277344 0.245203
981.139648 0.241461
980.001953 0.247208
978.864258 0.251899
977.726563 0.247630
976.587891 0.240730
975.449219 0.260165
974.310547 0.263796
973.171875 0.254791
972.032227 0.247368
970.893555 0.261523
969.752930 0.251472
968.613281 0.254049
967.473633 0.272926
966.333008 0.274446
965.192383 0.259144
964.050781 0.267497
962.910156 0.273745
961.768555 0.260554
960.626953 0.255772
959.485352 0.274621
958.342773 0.267213
957.200195 0.259283
956.057617 0.266575
954.915039 0.268616
953.771484 0.247578
952.628906 0.247001
951.485352 0.257434
950.340820 0.253186
949.197266 0.238458
948.052734 0.243647
946.908203 0.254072
945.762695 0.237258
944.618164 0.239825
943.472656 0.235586
942.327148 0.246004
941.181641 0.244904
940.035156 0.246945
938.888672 0.249507
937.742188 0.256253
936.595703 0.234761
935.448242 0.245688
934.301758 0.259224
933.154297 0.245583
932.005859 0.251277
930.858398 0.252790
929.709961 0.249080
928.561523 0.264689
927.413086 0.270374
926.263672 0.259879
925.114258 0.265562
923.964844 0.275416
922.815430 0.281093
921.665039 0.267998
920.514648 0.281494
919.364258 0.264756
918.213867 0.275120
917.062500 0.282354
915.911133 0.264064
914.759766 0.275984
913.608398 0.278007
912.456055 0.276386
911.303711 0.278408
910.151367 0.262739
908.999023 0.279848
907.845703 0.290189
906.692383 0.285967
905.539063 0.293183
904.385742 0.299356
903.231445 0.302409
902.077148 0.311695
900.922852 0.300201
899.768555 0.317791
898.613281 0.293322
897.458008 0.303121
896.302734 0.296828
895.146484 0.298839
893.991211 0.316929
892.834961 0.307526
891.678711 0.325087
890.521484 0.331237
889.364258 0.324428
888.207031 0.348711
887.049805 0.353298
885.892578 0.373938
884.734375 0.387837
883.576172 0.405355
882.417969 0.402161
881.258789 0.384480
880.099609 0.380258
878.940430 0.370865
877.781250 0.362510
876.621094 0.353642
875.461914 0.362870
874.301758 0.327132
873.140625 0.313110
871.980469 0.302194
870.819336 0.307809
869.658203 0.287088
868.496094 0.290640
867.334961 0.292125
866.172852 0.286901
865.010742 0.264655
863.847656 0.286260
862.685547 0.279494
861.522461 0.271184
860.359375 0.249476
859.195313 0.269520
858.031250 0.271522
856.867188 0.273008
855.703125 0.279643
854.539063 0.285761
853.374023 0.274888
852.208984 0.281519
851.043945 0.280428
849.877930 0.289112
848.711914 0.286477
847.545898 0.288985
846.379883 0.310000
845.212891 0.293485
844.046875 0.311406
842.879883 0.311338
841.711914 0.324111
840.544922 0.339446
839.376953 0.344506
838.208008 0.379335
837.040039 0.397727
835.871094 0.456644
834.702148 0.468855
833.533203 0.544143
832.364258 0.632215
831.194336 0.751520
830.024414 0.858984
828.854492 0.995608
827.683594 1.000000
826.513672 0.980829
825.342773 0.935039
824.170898 0.840634
823.000000 0.788752
821.828125 0.683162
820.656250 0.618036
819.483398 0.563169
818.311523 0.506280
817.138672 0.469867
815.965820 0.423248
814.791992 0.420088
813.619141 0.386784
812.445313 0.382101
811.270508 0.369249
810.096680 0.371720
808.921875 0.359897
807.747070 0.350120
806.572266 0.335756
805.396484 0.311704
804.221680 0.339688
803.045898 0.329414
801.869141 0.319655
800.693359 0.315506
799.516602 0.337349
798.339844 0.309763
797.162109 0.324466
795.985352 0.325412
794.807617 0.319740
793.628906 0.317633
792.451172 0.317562
791.272461 0.330212
790.093750 0.334717
788.915039 0.319386
787.735352 0.345246
786.556641 0.347712
785.375977 0.337978
784.196289 0.341460
783.015625 0.332748
781.835938 0.332674
780.654297 0.317366
779.473633 0.320342
778.291992 0.314180
777.110352 0.309036
775.928711 0.317592
774.747070 0.293174
773.564453 0.295138
772.381836 0.279355
771.199219 0.283348
770.015625 0.294434
768.832031 0.301968
767.648438 0.318617
766.464844 0.284615
765.280273 0.290121
764.095703 0.311317
762.911133 0.305681
761.725586 0.329394
760.541016 0.348543
759.355469 0.366673
758.168945 0.377715
756.983398 0.402907
755.796875 0.406860
754.610352 0.414349
753.422852 0.409710
752.236328 0.399012
751.048828 0.394378
749.861328 0.384192
748.672852 0.382592
747.485352 0.356771
746.296875 0.339538
745.107422 0.340975
743.918945 0.349471
742.729492 0.324184
741.540039 0.318063
740.349609 0.319504
739.160156 0.316913
737.969727 0.321879
736.779297 0.305691
735.587891 0.296056
734.397461 0.311091
733.206055 0.292904
732.013672 0.302398
730.822266 0.308367
729.629883 0.294718
728.437500 0.296664
727.244141 0.295089
726.051758 0.305074
724.858398 0.295961
723.665039 0.292880
722.470703 0.292815
721.276367 0.311328
720.082031 0.299209
718.887695 0.306169
717.693359 0.315132
716.498047 0.316566
715.302734 0.307968
714.106445 0.321940
712.911133 0.317857
711.714844 0.313274
710.517578 0.311700
709.321289 0.312632
708.124023 0.316568
706.926758 0.317999
705.729492 0.315424
704.531250 0.329869
703.333008 0.317784
702.134766 0.312208
700.936523 0.325644
699.737305 0.310567
698.538086 0.328997
697.338867 0.330422
696.138672 0.333846
694.938477 0.318281
693.738281 0.343686
692.538086 0.350600
691.336914 0.345028
690.135742 0.356431
688.934570 0.361342
687.732422 0.352278
686.531250 0.362675
685.328125 0.357106
684.125977 0.356028
682.923828 0.362927
681.720703 0.381285
680.516602 0.371731
679.313477 0.364672
678.109375 0.375049
676.905273 0.369486
675.701172 0.375874
674.496094 0.379771
673.291992 0.391130
672.085938 0.392534
670.880859 0.391947
669.674805 0.387382
668.468750 0.384808
667.262695 0.399135
666.055664 0.387118
664.849609 0.376596
663.642578 0.373034
662.434570 0.360534
661.227539 0.363431
660.019531 0.346471
658.810547 0.338948
657.602539 0.361197
656.393555 0.357147
655.184570 0.361033
653.975586 0.361446
652.765625 0.346988
651.555664 0.365741
650.345703 0.354758
649.134766 0.355667
647.924805 0.343205
646.712891 0.335204
645.501953 0.343543
644.291016 0.336041
643.079102 0.335964
641.866211 0.334403
640.654297 0.332843
639.441406 0.337217
638.228516 0.330713
637.015625 0.328661
635.801758 0.336985
634.587891 0.351234
633.374023 0.327447
632.160156 0.322928
630.945313 0.349018
629.730469 0.340054
628.514648 0.338496
627.299805 0.354204
626.083984 0.352150
624.868164 0.339249
623.651367 0.345580
622.435547 0.340572
621.218750 0.339015
620.000977 0.360613
618.784180 0.333442
617.566406 0.348630
616.347656 0.360857
615.129883 0.352407
613.911133 0.342976
612.692383 0.349785
611.473633 0.345278
610.253906 0.326512
609.034180 0.346593
607.814453 0.338649
606.594727 0.341520
605.374023 0.333580
604.153320 0.325645
602.931641 0.328025
601.710938 0.351024
600.489258 0.340635
599.267578 0.325344
598.044922 0.343912
596.822266 0.331570
595.599609 0.328552
594.376953 0.332888
593.153320 0.339673
591.929688 0.325873
590.706055 0.347355
589.481445 0.332090
588.257813 0.336910
587.032227 0.322145
585.807617 0.325007
584.582031 0.334719
583.356445 0.329260
582.130859 0.337988
580.905273 0.321772
579.678711 0.330497
578.452148 0.333353
577.224609 0.344027
575.997070 0.334176
574.769531 0.327260
573.541992 0.330602
572.313477 0.322714
571.084961 0.334353
569.856445 0.338668
568.627930 0.318586
567.398438 0.317048
566.168945 0.337456
564.939453 0.335915
563.708984 0.332425
562.478516 0.337708
561.248047 0.316680
560.016602 0.314170
558.785156 0.314584
557.553711 0.314511
556.322266 0.294968
555.089844 0.323123
553.857422 0.311372
552.625000 0.321027
551.391602 0.313171
550.158203 0.318932
548.924805 0.314969
547.690430 0.307121
546.457031 0.313365
545.222656 0.318149
543.987305 0.309333
542.752930 0.317514
541.517578 0.295598
540.281250 0.309601
539.045898 0.322143
537.809570 0.324978
536.573242 0.315688
535.335938 0.330643
534.099609 0.315540
532.861328 0.323219
531.624023 0.311516
530.385742 0.344864
529.148438 0.334614
527.909180 0.306940
526.670898 0.325260
525.431641 0.317441
524.192383 0.328010
522.952148 0.341476
521.712891 0.322537
520.472656 0.341799
519.231445 0.319002
517.991211 0.322309
516.750000 0.347838
515.508789 0.330368
514.266602 0.333671
513.024414 0.320557
511.782227 0.357646
510.540039 0.340673
509.296875 0.349759
508.053711 0.338100
506.810547 0.353451
505.566406 0.358188
504.322266 0.336415
503.078125 0.347418
501.833008 0.355526
500.587891 0.362185
499.342773 0.363544
498.097656 0.359606
496.851563 0.366259
495.605469 0.366173
494.359375 0.369934
493.112305 0.376099
491.865234 0.366874
490.618164 0.397072
489.370117 0.397939
488.123047 0.390157
486.874023 0.398711
485.625977 0.391413
484.376953 0.399002
483.127930 0.399867
481.878906 0.399293
480.628906 0.414072
479.378906 0.429323
478.128906 0.430180
476.877930 0.438229
475.626953 0.438604
474.375977 0.434186
473.125000 0.451331
471.873047 0.465115
470.621094 0.473145
469.368164 0.498408
468.115234 0.498768
466.862305 0.512527
465.609375 0.536804
464.355469 0.566332
463.102539 0.601584
461.847656 0.628692
460.593750 0.688767
459.338867 0.740690
458.083984 0.822686
456.828125 0.873118
455.572266 0.915886
454.316406 0.955292
453.060547 0.916880
451.803711 0.834108
450.546875 0.798606
449.290039 0.727826
448.032227 0.668047
446.774414 0.644527
445.516602 0.600048
444.257813 0.563690
442.999023 0.558791
441.740234 0.553418
440.481445 0.541858
439.221680 0.543156
437.961914 0.530175
436.701172 0.505306
435.441406 0.517076
434.180664 0.514098
432.918945 0.534420
431.658203 0.538569
430.396484 0.539865
429.133789 0.517879
427.872070 0.535330
426.609375 0.534726
425.346680 0.552163
424.083008 0.552979
422.819336 0.557117
421.555664 0.558880
420.291016 0.559219
419.027344 0.563352
417.762695 0.591186
416.497070 0.599575
415.231445 0.616489
413.965820 0.609233
412.700195 0.621874
411.433594 0.670021
410.166992 0.678853
408.900391 0.695727
407.632813 0.696031
406.365234 0.727084
405.097656 0.762851
403.830078 0.782052
402.561523 0.815897
401.291992 0.806246
400.023438 0.862748
398.753906 0.855453
397.484375 0.910498
396.214844 0.914525
394.944336 0.952064
393.673828 0.972124
392.402344 0.974246
391.130859 1.009856
389.859375 1.009610
388.587891 1.063580
387.315430 1.073218
386.042969 1.070129
384.770508 1.083529
383.497070 1.095981
382.223633 1.105601
380.950195 1.114275
379.676758 1.110708
378.402344 1.103378
377.126953 1.094170
375.852539 1.112244
374.577148 1.072946
373.301758 1.103708
372.025391 1.070071
370.749023 1.062291
369.472656 1.062500
368.196289 1.065526
366.918945 1.039443
365.641602 1.046228
364.363281 1.040809
363.085938 1.032577
361.807617 1.008872
360.528320 1.028787
359.249023 1.022908
357.969727 0.993598
356.690430 0.992416
355.410156 0.977649
354.129883 0.949308
352.849609 0.970612
351.568359 0.945563
350.287109 0.925206
349.005859 0.916556
347.723633 0.909313
346.441406 0.909088
345.159180 0.885954
343.875977 0.866572
342.592773 0.844862
341.309570 0.831104
340.026367 0.831365
338.742188 0.786800
337.457031 0.788005
336.172852 0.759807
334.887695 0.754486
333.602539 0.725843
332.316406 0.698147
331.030273 0.721752
329.744141 0.695469
328.457031 0.704151
327.170898 0.660647
325.882813 0.657687
324.595703 0.657058
323.307617 0.629892
322.019531 0.626942
320.730469 0.613292
319.441406 0.618256
318.152344 0.616241
316.863281 0.611902
315.573242 0.588042
314.283203 0.599049
312.992188 0.583102
311.701172 0.570879
310.410156 0.592562
309.119141 0.602163
307.827148 0.608975
306.535156 0.601861
305.242188 0.610989
303.950195 0.593211
302.656250 0.600017
301.363281 0.633708
300.069336 0.639573
298.775391 0.637559
297.480469 0.642958
296.186523 0.652984
294.891602 0.688007
293.595703 0.678114
292.299805 0.728846
291.003906 0.737915
289.708008 0.773806
288.411133 0.793032
287.114258 0.830740
285.816406 0.850866
284.518555 0.880685
283.220703 0.932662
281.922852 0.978147
280.624023 0.997291
279.325195 1.024272
278.025391 1.056777
276.725586 1.089727
275.425781 1.142955
274.125977 1.174944
272.825195 1.243797
271.523438 1.303396
270.222656 1.392916
268.920898 1.443234
267.619141 1.495829
266.316406 1.566814
265.013672 1.669523
263.710938 1.768958
262.408203 1.779549
261.104492 1.893164
259.799805 1.941424
258.496094 1.957478
257.191406 1.988691
255.886719 2.046996
254.581055 2.087357
253.275391 2.150659
251.969727 2.170769
250.663086 2.200968
249.356445 2.225643
248.049805 2.260858
246.742188 2.274497
245.434570 2.303260
244.126953 2.289375
242.818359 2.305744
241.509766 2.365175
240.201172 2.265623
238.891602 2.291144
237.582031 2.270868
236.271484 2.277607
234.961914 2.267868
233.650391 2.229770
232.339844 2.226451
231.028320 2.181524
229.716797 2.174561
228.405273 2.154348
227.092773 2.098051
225.779297 2.102076
224.466797 2.065457
223.153320 2.070401
221.839844 2.046131
220.525391 2.029174
219.210938 2.011313
217.896484 2.002582
216.581055 2.008446
215.265625 1.992427
213.950195 1.957731
212.633789 1.928975
211.317383 1.933940
210.000977 1.895187
208.683594 1.898335
207.366211 1.845502
206.048828 1.851846
204.730469 1.848179
203.412109 1.869071
202.092773 1.813571
200.773438 1.813552
199.454102 1.783997
198.133789 1.736739
196.814453 1.794418
195.493164 1.750814
194.172852 1.721757
192.851563 1.694985
191.529297 1.727207
190.208008 1.729475
188.885742 1.708162
187.562500 1.737180
186.239258 1.736271
184.916016 1.742611
183.592773 1.750306
182.268555 1.792867
180.944336 1.807788
179.619141 1.769291
178.293945 1.860682
176.968750 1.870596
175.643555 1.875077
174.317383 1.916179
172.990234 1.938274
171.664063 1.981596
170.336914 2.035738
169.008789 2.079010
167.680664 2.107810
166.352539 2.124406
165.024414 2.161300
163.695313 2.233368
162.366211 2.250818
161.036133 2.315607
159.706055 2.368640
158.375977 2.444179
157.044922 2.518776
155.713867 2.573963
154.382813 2.611557
153.050781 2.687849
151.718750 2.793357
150.385742 2.861010
149.053711 2.880489
147.719727 2.962923
146.386719 3.007542
145.052734 3.095740
143.717773 3.074688
142.383789 3.100821
141.048828 3.123794
139.712891 3.183574
138.377930 3.158928
137.041016 3.142373
135.705078 3.198508
134.368164 3.144720
133.031250 3.141184
131.693359 3.115682
130.355469 3.176243
129.017578 3.140438
127.678711 3.130184
126.339844 3.111875
125.000977 3.068951
123.661133 3.056933
122.321289 3.055211
120.980469 3.026650
119.639648 3.049980
118.298828 3.007127
116.957031 3.038941
115.615234 3.082802
114.273438 3.095814
112.930664 3.130254
111.587891 3.106187
110.244141 3.092844
108.900391 3.065228
107.556641 2.983200
106.211914 2.881592
104.867188 2.702901
103.522461 2.547487
102.176758 2.310607
100.831055 2.035095
99.484375 1.719648
98.137695 1.500997
