3198.529297 0.010402
3197.824219 0.006500
3197.119141 0.008449
3196.414063 0.007148
3195.708008 0.009096
3195.001953 0.007796
3194.296875 0.004547
3193.590820 0.011040
3192.884766 0.007143
3192.178711 0.009089
3191.472656 0.011035
3190.765625 0.010384
3190.059570 0.006489
3189.352539 0.007137
3188.646484 0.011028
3187.939453 0.010378
3187.232422 0.004540
3186.525391 0.008429
3185.818359 0.010373
3185.111328 0.004537
3184.404297 0.001944
3183.696289 0.007128
3182.989258 0.007775
3182.281250 0.007773
3181.573242 0.011658
3180.865234 0.012304
3180.157227 0.009065
3179.449219 0.010358
3178.741211 0.012298
3178.033203 0.007766
3177.324219 0.011647
3176.616211 0.007117
3175.907227 0.007116
3175.198242 0.009701
3174.489258 0.010347
3173.780273 0.007112
3173.071289 0.009050
3172.362305 0.010342
3171.652344 0.008401
3170.943359 0.010338
3170.233398 0.010983
3169.523438 0.007751
3168.814453 0.009042
3168.104492 0.010332
3167.394531 0.007102
3166.683594 0.009683
3165.973633 0.010327
3165.263672 0.006453
3164.552734 0.007742
3163.841797 0.011612
3163.130859 0.006450
3162.420898 0.004514
3161.709961 0.010961
3160.998047 0.007091
3160.287109 0.007735
3159.576172 0.009023
3158.864258 0.009665
3158.153320 0.009020
3157.441406 0.012239
3156.729492 0.009661
3156.017578 0.009015
3155.305664 0.010945
3154.593750 0.010300
3153.880859 0.010298
3153.168945 0.010296
3152.456055 0.004504
3151.744141 0.007076
3151.031250 0.010291
3150.318359 0.007074
3149.605469 0.007716
3148.892578 0.010929
3148.178711 0.008999
3147.465820 0.010283
3146.751953 0.010281
3146.039063 0.012207
3145.325195 0.009635
3144.611328 0.010276
3143.897461 0.010274
3143.183594 0.010915
3142.468750 0.009629
3141.754883 0.011553
3141.041016 0.011551
3140.326172 0.011549
3139.611328 0.008981
3138.896484 0.006414
3138.181641 0.009619
3137.466797 0.007694
3136.751953 0.010898
3136.037109 0.010256
3135.321289 0.008972
3134.605469 0.010893
3133.890625 0.008328
3133.174805 0.011530
3132.458984 0.011528
3131.743164 0.010886
3131.027344 0.010244
3130.310547 0.013442
3129.594727 0.010240
3128.877930 0.009598
3128.161133 0.009597
3127.445313 0.009595
3126.728516 0.004477
3126.010742 0.011510
3125.293945 0.007033
3124.577148 0.011507
3123.859375 0.012783
3123.142578 0.012142
3122.424805 0.010223
3121.707031 0.012138
3120.989258 0.011497
3120.271484 0.012133
3119.553711 0.006385
3118.835938 0.007661
3118.117188 0.013404
3117.399414 0.004467
3116.680664 0.013399
3115.961914 0.008931
3115.243164 0.012757
3114.524414 0.009566
3113.805664 0.010840
3113.086914 0.011475
3112.367188 0.011473
3111.648438 0.010197
3110.928711 0.008921
3110.208984 0.009556
3109.489258 0.012103
3108.769531 0.014011
3108.049805 0.009551
3107.329102 0.013370
3106.609375 0.013367
3105.888672 0.014638
3105.168945 0.010181
3104.448242 0.013997
3103.727539 0.011450
3103.006836 0.013992
3102.285156 0.008902
3101.564453 0.010172
3100.843750 0.010806
3100.122070 0.011440
3099.400391 0.007625
3098.678711 0.010165
3097.957031 0.010164
3097.235352 0.012702
3096.513672 0.014605
3095.791992 0.010793
3095.069336 0.011426
3094.346680 0.010789
3093.625000 0.012057
3092.902344 0.013958
3092.179688 0.014590
3091.457031 0.014587
3090.733398 0.013951
3090.010742 0.012680
3089.287109 0.012044
3088.564453 0.010774
3087.840820 0.011406
3087.117188 0.010771
3086.393555 0.013303
3085.669922 0.010767
3084.946289 0.012032
3084.221680 0.012029
3083.498047 0.008229
3082.773438 0.010759
3082.048828 0.010758
3081.324219 0.012021
3080.599609 0.012019
3079.875000 0.012649
3079.149414 0.017706
3078.424805 0.013277
3077.699219 0.012643
3076.974609 0.006952
3076.249023 0.013270
3075.523438 0.012636
3074.797852 0.008212
3074.071289 0.015158
3073.345703 0.009472
3072.619141 0.011364
3071.893555 0.012625
3071.166992 0.010729
3070.440430 0.010727
3069.713867 0.015142
3068.987305 0.015139
3068.259766 0.010722
3067.533203 0.011350
3066.805664 0.016392
3066.079102 0.013868
3065.351563 0.011344
3064.624023 0.011342
3063.896484 0.012600
3063.168945 0.008819
3062.440430 0.016375
3061.712891 0.017001
3060.984375 0.013851
3060.255859 0.011330
3059.527344 0.015734
3058.798828 0.011955
3058.070313 0.011324
3057.341797 0.015096
3056.613281 0.013836
3055.883789 0.013204
3055.154297 0.016345
3054.424805 0.015085
3053.695313 0.015083
3052.965820 0.010053
3052.236328 0.015077
3051.506836 0.015075
3050.776367 0.013188
3050.046875 0.011930
3049.316406 0.010044
3048.585938 0.014436
3047.855469 0.015689
3047.125000 0.014431
3046.393555 0.015683
3045.663086 0.015053
3044.931641 0.010661
3044.201172 0.011286
3043.469727 0.016926
3042.738281 0.017549
3042.006836 0.013160
3041.275391 0.015663
3040.542969 0.015661
3039.811523 0.015031
3039.079102 0.013776
3038.346680 0.013774
3037.614258 0.013145
3036.881836 0.011265
3036.149414 0.015018
3035.416992 0.013138
3034.683594 0.015638
3033.951172 0.015635
3033.217773 0.015007
3032.484375 0.015629
3031.750977 0.013751
3031.017578 0.017499
3030.284180 0.014996
3029.549805 0.016868
3028.816406 0.013741
3028.082031 0.016237
3027.347656 0.018107
3026.613281 0.020601
3025.878906 0.015604
3025.144531 0.021218
3024.410156 0.018718
3023.674805 0.013724
3022.939453 0.022453
3022.205078 0.013719
3021.469727 0.017457
3020.734375 0.016831
3019.999023 0.013088
3019.262695 0.016202
3018.527344 0.016199
3017.791016 0.014950
3017.054688 0.019930
3016.318359 0.019303
3015.582031 0.015564
3014.845703 0.021163
3014.109375 0.024894
3013.373047 0.021778
3012.635742 0.018041
3011.898438 0.019904
3011.161133 0.018657
3010.424805 0.020518
3009.686523 0.022380
3008.949219 0.016160
3008.211914 0.019264
3007.473633 0.021125
3006.736328 0.019878
3005.998047 0.021117
3005.259766 0.019250
3004.521484 0.022351
3003.782227 0.021726
3003.043945 0.024205
3002.305664 0.024821
3001.566406 0.022955
3000.827148 0.020470
3000.087891 0.023567
2999.348633 0.020462
2998.609375 0.024178
2997.870117 0.025413
2997.129883 0.022930
2996.389648 0.026643
2995.650391 0.025399
2994.910156 0.023536
2994.169922 0.024770
2993.429688 0.029719
2992.688477 0.029713
2991.948242 0.021043
2991.207031 0.024752
2990.465820 0.029697
2989.725586 0.025361
2988.983398 0.025357
2988.242188 0.023497
2987.500977 0.027202
2986.759766 0.029669
2986.017578 0.028428
2985.275391 0.030276
2984.533203 0.030888
2983.791016 0.029647
2983.048828 0.031495
2982.306641 0.036428
2981.563477 0.030248
2980.821289 0.032711
2980.078125 0.030854
2979.334961 0.036401
2978.591797 0.040095
2977.848633 0.037621
2977.105469 0.035147
2976.361328 0.036990
2975.618164 0.040065
2974.874023 0.040674
2974.129883 0.042515
2973.385742 0.040659
2972.641602 0.041883
2971.897461 0.038796
2971.152344 0.051103
2970.408203 0.043707
2969.663086 0.050469
2968.917969 0.041844
2968.172852 0.045528
2967.427734 0.051671
2966.682617 0.051661
2965.936523 0.054726
2965.191406 0.057789
2964.445313 0.057164
2963.699219 0.057768
2962.953125 0.056528
2962.207031 0.062046
2961.460938 0.063877
2960.713867 0.058953
2959.967773 0.064467
2959.220703 0.065683
2958.473633 0.069967
2957.726563 0.065658
2956.979492 0.066259
2956.232422 0.063180
2955.484375 0.061941
2954.737305 0.074193
2953.989258 0.067436
2953.241211 0.074165
2952.493164 0.074764
2951.745117 0.080877
2950.997070 0.072898
2950.248047 0.072884
2949.500000 0.078382
2948.750977 0.076530
2948.001953 0.067946
2947.252930 0.084457
2946.503906 0.077711
2945.754883 0.075249
2945.004883 0.073400
2944.255859 0.080724
2943.505859 0.081321
2942.755859 0.078249
2942.005859 0.073344
2941.255859 0.076997
2940.504883 0.082481
2939.754883 0.072692
2939.003906 0.075121
2938.252930 0.078770
2937.502930 0.073871
2936.750977 0.073857
2936.000000 0.082387
2935.249023 0.073829
2934.497070 0.067105
2933.746094 0.078681
2932.994141 0.071958
2932.242188 0.076822
2931.490234 0.080465
2930.738281 0.069479
2929.985352 0.073731
2929.233398 0.070671
2928.480469 0.071876
2927.727539 0.074907
2926.974609 0.068195
2926.221680 0.070617
2925.468750 0.068778
2924.715820 0.072416
2923.961914 0.066318
2923.208008 0.076038
2922.455078 0.074807
2921.701172 0.070537
2920.946289 0.071739
2920.192383 0.074157
2919.438477 0.079612
2918.683594 0.077774
2917.928711 0.078367
2917.173828 0.073493
2916.418945 0.072871
2915.664063 0.072857
2914.909180 0.084377
2914.153320 0.076471
2913.398438 0.076456
2912.642578 0.067342
2911.886719 0.070968
2911.130859 0.072774
2910.375000 0.086099
2909.619141 0.078202
2908.862305 0.077581
2908.105469 0.086050
2907.349609 0.081792
2906.592773 0.088440
2905.835938 0.086000
2905.078125 0.081139
2904.321289 0.085362
2903.563477 0.086556
2902.806641 0.081093
2902.048828 0.078052
2901.291016 0.081062
2900.533203 0.079836
2899.774414 0.081635
2899.016602 0.084642
2898.257813 0.084626
2897.500000 0.090049
2896.741211 0.084594
2895.982422 0.081557
2895.222656 0.084561
2894.463867 0.080317
2893.705078 0.097208
2892.945313 0.093567
2892.185547 0.080874
2891.425781 0.085083
2890.666016 0.073000
2889.906250 0.085050
2889.146484 0.085034
2888.385742 0.088635
2887.625000 0.089824
2886.864258 0.081368
2886.103516 0.092199
2885.342773 0.097001
2884.582031 0.094573
2883.821289 0.098771
2883.059570 0.087913
2882.297852 0.092110
2881.536133 0.089685
2880.774414 0.094482
2880.012695 0.088447
2879.250977 0.090836
2878.488281 0.090818
2877.726563 0.081179
2876.963867 0.097396
2876.201172 0.089563
2875.438477 0.086541
2874.674805 0.091932
2873.912109 0.092515
2873.149414 0.091296
2872.385742 0.093079
2871.622070 0.091260
2870.858398 0.090042
2870.094727 0.093625
2869.330078 0.092407
2868.566406 0.094189
2867.801758 0.095970
2867.038086 0.095352
2866.273438 0.097132
2865.508789 0.099511
2864.743164 0.101289
2863.978516 0.112056
2863.212891 0.100651
2862.448242 0.103626
2861.682617 0.088634
2860.916992 0.099394
2860.151367 0.096382
2859.384766 0.092772
2858.619141 0.105320
2857.852539 0.105300
2857.086914 0.093914
2856.320313 0.093298
2855.553711 0.096269
2854.786133 0.101033
2854.019531 0.099818
2853.251953 0.095615
2852.485352 0.097986
2851.717773 0.099162
2850.950195 0.097351
2850.182617 0.093749
2849.414063 0.106268
2848.646484 0.086550
2847.877930 0.102049
2847.110352 0.096659
2846.341797 0.096640
2845.573242 0.099603
2844.803711 0.096602
2844.035156 0.101949
2843.266602 0.097160
2842.497070 0.101313
2841.727539 0.092355
2840.958008 0.098295
2840.188477 0.092319
2839.418945 0.102424
2838.648438 0.094069
2837.878906 0.092265
2837.108398 0.095222
2836.337891 0.093419
2835.567383 0.084477
2834.795898 0.094572
2834.025391 0.098716
2833.254883 0.090967
2832.483398 0.090355
2831.711914 0.090931
2830.940430 0.095667
2830.168945 0.094460
2829.397461 0.103351
2828.625000 0.085515
2827.852539 0.090248
2827.081055 0.094979
2826.308594 0.092586
2825.536133 0.094942
2824.762695 0.094923
2823.990234 0.087786
2823.216797 0.088362
2822.444336 0.084787
2821.670898 0.085956
2820.897461 0.087124
2820.123047 0.091848
2819.349609 0.088867
2818.576172 0.081742
2817.801758 0.076396
2817.027344 0.079933
2816.252930 0.082877
2815.478516 0.079902
2814.704102 0.085212
2813.928711 0.085195
2813.154297 0.078671
2812.378906 0.093440
2811.603516 0.087509
2810.828125 0.081580
2810.052734 0.079791
2809.276367 0.079184
2808.500977 0.076805
2807.724609 0.079744
2806.948242 0.079728
2806.171875 0.087388
2805.395508 0.078515
2804.619141 0.079090
2803.841797 0.079664
2803.064453 0.075519
2802.288086 0.070785
2801.510742 0.077848
2800.733398 0.076653
2799.955078 0.077227
2799.177734 0.070139
2798.399414 0.068357
2797.621094 0.064809
2796.842773 0.074221
2796.064453 0.067139
2795.286133 0.075957
2794.507813 0.065346
2793.728516 0.063567
2792.950195 0.068262
2792.170898 0.066483
2791.391602 0.061764
2790.611328 0.064104
2789.832031 0.069972
2789.052734 0.076424
2788.272461 0.069944
2787.492188 0.070517
2786.711914 0.065803
2785.931641 0.064028
2785.151367 0.071650
2784.370117 0.059305
2783.588867 0.061641
2782.808594 0.067498
2782.027344 0.063964
2781.246094 0.063951
2780.463867 0.067458
2779.682617 0.066271
2778.900391 0.064499
2778.119141 0.060969
2777.336914 0.062129
2776.554688 0.064460
2775.771484 0.065033
2774.989258 0.057405
2774.206055 0.049780
2773.423828 0.063237
2772.640625 0.059127
2771.857422 0.063212
2771.074219 0.060859
2770.290039 0.065527
2769.506836 0.059664
2768.722656 0.062577
2767.938477 0.059640
2767.154297 0.063136
2766.370117 0.053772
2765.585938 0.059020
2764.800781 0.061929
2764.016602 0.060749
2763.231445 0.057232
2762.446289 0.053134
2761.661133 0.059545
2760.875000 0.064202
2760.089844 0.060104
2759.303711 0.062426
2758.518555 0.054247
2757.732422 0.064150
2756.945313 0.067052
2756.159180 0.062375
2755.373047 0.058866
2754.585938 0.057688
2753.798828 0.053599
2753.012695 0.053588
2752.224609 0.055324
2751.437500 0.059389
2750.650391 0.058212
2749.862305 0.059947
2749.074219 0.063426
2748.287109 0.057014
2747.499023 0.055839
2746.709961 0.056409
2745.921875 0.051165
2745.132813 0.062199
2744.344727 0.055212
2743.555664 0.065660
2742.766602 0.064485
2741.977539 0.063310
2741.187500 0.066782
2740.398438 0.058059
2739.608398 0.059209
2738.818359 0.054554
2738.028320 0.061506
2737.238281 0.055112
2736.448242 0.056840
2735.657227 0.059149
2734.866211 0.059716
2734.075195 0.059124
2733.284180 0.053897
2732.493164 0.050989
2731.702148 0.059088
2730.910156 0.056181
2730.119141 0.050378
2729.327148 0.053263
2728.535156 0.053831
2727.743164 0.056135
2726.950195 0.056702
2726.158203 0.057847
2725.365234 0.048582
2724.572266 0.053776
2723.779297 0.052609
2722.986328 0.053176
2722.193359 0.051432
2721.399414 0.056043
2720.606445 0.059498
2719.812500 0.049668
2719.018555 0.056586
2718.224609 0.056575
2717.430664 0.051946
2716.635742 0.052512
2715.840820 0.051348
2715.046875 0.050183
2714.251953 0.050750
2713.456055 0.048433
2712.661133 0.050153
2711.866211 0.049566
2711.070313 0.050132
2710.274414 0.057035
2709.478516 0.045504
2708.682617 0.051829
2707.886719 0.052394
2707.089844 0.052383
2706.293945 0.052948
2705.497070 0.045457
2704.700195 0.044872
2703.903320 0.043138
2703.105469 0.040829
2702.308594 0.052894
2701.510742 0.048859
2700.712891 0.048274
2699.915039 0.050563
2699.117188 0.048255
2698.319336 0.051691
2697.520508 0.047086
2696.722656 0.053966
2695.923828 0.050511
2695.125000 0.048779
2694.326172 0.055654
2693.526367 0.052200
2692.727539 0.049322
2691.927734 0.051606
2691.127930 0.050448
2690.328125 0.056743
2689.528320 0.050427
2688.728516 0.048125
2687.927734 0.052698
2687.126953 0.044669
2686.326172 0.050958
2685.525391 0.054955
2684.724609 0.050365
2683.923828 0.049782
2683.122070 0.053205
2682.321289 0.058341
2681.519531 0.056614
2680.717773 0.050885
2679.915039 0.054304
2679.113281 0.058293
2678.310547 0.049139
2677.508789 0.049129
2676.706055 0.051403
2675.903320 0.051963
2675.099609 0.053094
2674.296875 0.049659
2673.493164 0.050790
2672.690430 0.049638
2671.886719 0.050198
2671.083008 0.058742
2670.278320 0.049607
2669.474609 0.053017
2668.669922 0.056996
2667.865234 0.058693
2667.060547 0.055263
2666.255859 0.048986
2665.451172 0.050114
2664.646484 0.052381
2663.840820 0.054647
2663.035156 0.049514
2662.229492 0.053487
2661.423828 0.047218
2660.618164 0.059152
2659.811523 0.046061
2659.004883 0.046051
2658.199219 0.047178
2657.391602 0.050578
2656.584961 0.046590
2655.778320 0.047717
2655.033203 0.051796
2654.970703 0.045435
2654.227539 0.044965
2654.164063 0.052239
2653.421875 0.051218
2653.356445 0.047687
2652.616211 0.048365
2652.548828 0.050515
2651.810547 0.042668
2651.740234 0.045964
2651.004883 0.051193
2650.932617 0.048791
2650.198242 0.052891
2650.124023 0.049916
2649.392578 0.050040
2649.316406 0.047637
2648.585938 0.050031
2648.507813 0.048194
2647.779297 0.047181
2647.699219 0.052152
2646.972656 0.046605
2646.889648 0.051007
2646.166016 0.047166
2646.081055 0.049297
2645.359375 0.052840
2645.271484 0.049853
2644.552734 0.048855
2644.461914 0.048143
2643.745117 0.042031
2643.652344 0.052663
2642.938477 0.048839
2642.842773 0.050387
2642.130859 0.053373
2642.033203 0.050377
2641.323242 0.048823
2641.222656 0.048103
2640.515625 0.051653
2640.413086 0.051487
2639.708008 0.046537
2639.602539 0.054870
2638.899414 0.053906
2638.791992 0.047507
2638.091797 0.044819
2637.981445 0.048627
2637.283203 0.049350
2637.169922 0.053140
2636.475586 0.052745
2636.359375 0.050302
2635.666992 0.057273
2635.547852 0.054812
2634.858398 0.058964
2634.736328 0.050846
2634.049805 0.049884
2633.924805 0.052530
2633.241211 0.047042
2633.113281 0.045177
2632.431641 0.052135
2632.300781 0.055895
2631.623047 0.059492
2631.489258 0.047416
2630.813477 0.054383
2630.676758 0.058129
2630.003906 0.052675
2629.864258 0.055860
2629.194336 0.054365
2629.051758 0.057540
2628.384766 0.049827
2628.238281 0.049068
2627.575195 0.055480
2627.425781 0.059771
2626.765625 0.045282
2626.612305 0.056940
2625.955078 0.051500
2625.798828 0.054673
2625.145508 0.050359
2624.985352 0.059733
2624.334961 0.051483
2624.171875 0.047326
2623.524414 0.056565
2623.358398 0.059708
2622.713867 0.055990
2622.543945 0.064201
2621.903320 0.045237
2621.729492 0.059120
2621.092773 0.058798
2620.916016 0.049537
2620.281250 0.055397
2620.100586 0.055718
2619.469727 0.054822
2619.286133 0.057394
2618.659180 0.051988
2618.471680 0.057382
2617.847656 0.059889
2617.656250 0.057369
2617.036133 0.055924
2616.840820 0.057920
2616.224609 0.062128
2616.025391 0.061280
2615.412109 0.064376
2615.209961 0.049464
2614.600586 0.054767
2614.394531 0.057321
2613.788086 0.052500
2613.578125 0.066860
2612.976563 0.060957
2612.762695 0.052802
2612.164063 0.059254
2611.946289 0.057845
2611.351563 0.052473
2611.129883 0.056710
2610.539063 0.057541
2610.312500 0.066241
2609.726563 0.062608
2609.496094 0.057808
2608.913086 0.059778
2608.678711 0.055551
2608.100586 0.059204
2607.862305 0.056101
2607.287109 0.055248
2607.044922 0.053284
2606.473633 0.056366
2606.227539 0.057198
2605.660156 0.051847
2605.409180 0.056065
2604.846680 0.057473
2604.591797 0.058295
2604.033203 0.050703
2603.773438 0.055480
2603.218750 0.059707
2602.955078 0.059390
2602.405273 0.048433
2602.136719 0.058817
2601.590820 0.050114
2601.318359 0.054324
2600.776367 0.060802
2600.500000 0.051513
2599.961914 0.052912
2599.680664 0.054861
2599.147461 0.062470
2598.861328 0.053170
2598.333008 0.055707
2598.042969 0.060992
2597.518555 0.049509
2597.222656 0.055385
2596.703125 0.059625
2596.403320 0.056492
2595.888672 0.059615
2595.583984 0.064867
2595.073242 0.057356
2594.763672 0.059822
2594.257813 0.051724
2593.943359 0.058691
2593.442383 0.051715
2593.123047 0.046384
2592.625977 0.053392
2592.302734 0.050285
2591.810547 0.052259
2591.482422 0.058653
2590.994141 0.057307
2590.661133 0.059199
2590.178711 0.049432
2589.839844 0.056953
2589.362305 0.053355
2589.018555 0.053033
2588.545898 0.052785
2588.197266 0.046882
2587.729492 0.054460
2587.375977 0.057474
2586.913086 0.056696
2586.554688 0.059135
2586.095703 0.059492
2585.732422 0.054102
2585.279297 0.052187
2584.910156 0.052975
2584.461914 0.057789
2584.087891 0.051849
2583.644531 0.045438
2583.265625 0.056297
2582.827148 0.049917
2582.443359 0.054613
2582.009766 0.048786
2581.620117 0.052372
2581.192383 0.049339
2580.796875 0.060716
2580.374023 0.051572
2579.973633 0.060703
2579.556641 0.056047
2579.150391 0.048441
2578.738281 0.056598
2578.327148 0.056780
2577.919922 0.057148
2577.503906 0.057881
2577.101563 0.049856
2576.679688 0.056755
2576.283203 0.061049
2575.855469 0.058968
2575.464844 0.057118
2575.031250 0.061736
2574.645508 0.048710
2574.207031 0.048934
2573.827148 0.050381
2573.381836 0.052814
2573.007813 0.057648
2572.557617 0.047801
2572.188477 0.058757
2571.732422 0.053903
2571.369141 0.054271
2570.907227 0.055002
2570.549805 0.054262
2570.082031 0.049436
2569.730469 0.053134
2569.256836 0.052757
2568.910156 0.053683
2568.430664 0.057187
2568.090820 0.045287
2567.605469 0.052734
2567.270508 0.053665
2566.779297 0.047173
2566.450195 0.058126
2565.953125 0.052711
2565.629883 0.055881
2565.125977 0.052145
2564.809570 0.059782
2564.299805 0.059343
2563.989258 0.053627
2563.472656 0.054340
2563.167969 0.056410
2562.646484 0.058763
2562.346680 0.058075
2561.819336 0.053207
2561.526367 0.061415
2560.992188 0.058737
2560.705078 0.055264
2560.164063 0.053738
2559.883789 0.050231
2559.336914 0.048741
2559.061523 0.057476
2558.508789 0.057037
2558.240234 0.052445
2557.680664 0.054810
2557.417969 0.059130
2556.852539 0.051477
2556.596680 0.052984
2556.024414 0.048699
2555.774414 0.055205
2555.195313 0.053667
2554.952148 0.047390
2554.367188 0.054209
2554.129883 0.058530
2553.538086 0.064151
2553.307617 0.050717
2552.708984 0.054738
2552.484375 0.054052
2551.878906 0.055831
2551.662109 0.061842
2551.049805 0.060240
2550.838867 0.055704
2550.219727 0.060779
2550.015625 0.058478
2549.390625 0.059109
2549.192383 0.062923
2548.560547 0.055230
2548.369141 0.055674
2547.730469 0.047487
2547.544922 0.056777
2546.899414 0.055205
2546.721680 0.051758
2546.069336 0.050226
2545.897461 0.058426
2545.238281 0.054077
2545.074219 0.055634
2544.407227 0.055720
2544.250000 0.056737
2543.576172 0.061224
2543.425781 0.057839
2542.745117 0.060659
2542.600586 0.055048
2541.913086 0.055683
2541.776367 0.051703
2541.082031 0.052915
2540.951172 0.056140
2540.250000 0.058414
2540.126953 0.061132
2539.417969 0.053442
2539.301758 0.053342
2538.585938 0.055083
2538.476563 0.052777
2537.752930 0.049013
2537.651367 0.055545
2536.920898 0.058913
2536.826172 0.054979
2536.087891 0.062753
2536.000000 0.057190
2535.254883 0.048980
2535.174805 0.059956
2534.421875 0.052271
2534.348633 0.053285
2533.587891 0.057760
2533.522461 0.056605
2532.754883 0.059397
2532.696289 0.055485
2531.920898 0.053885
2531.870117 0.053811
2531.086914 0.056072
2531.042969 0.063785
2530.252930 0.057708
2530.216797 0.056564
2529.418945 0.057696
2529.389648 0.059880
2528.583984 0.054387
2528.562500 0.055989
2527.749023 0.054924
2527.735352 0.052654
2526.914063 0.051617
2526.908203 0.061510
2526.081055 0.060389
2526.079102 0.052635
2525.253906 0.062022
2525.244141 0.057611
2524.425781 0.058716
2524.409180 0.054831
2523.597656 0.049925
2523.573242 0.064235
2522.769531 0.062562
2522.737305 0.063077
2521.941406 0.066426
2521.901367 0.059225
2521.113281 0.060326
2521.065430 0.054277
2520.285156 0.066401
2520.228516 0.059746
2519.456055 0.055324
2519.392578 0.064117
2518.627930 0.057527
2518.555664 0.064102
2517.798828 0.058070
2517.718750 0.050394
2516.969727 0.058612
2516.881836 0.056407
2516.140625 0.061918
2516.043945 0.063511
2515.311523 0.061907
2515.207031 0.064045
2514.481445 0.060791
2514.369141 0.057463
2513.651367 0.064647
2513.531250 0.058544
2512.822266 0.052482
2512.693359 0.050873
2511.992188 0.056891
2511.855469 0.060705
2511.162109 0.058537
2511.016602 0.056318
2510.332031 0.057974
2510.177734 0.061225
2509.500977 0.066796
2509.338867 0.053013
2508.670898 0.062369
2508.500000 0.063929
2507.839844 0.057943
2507.661133 0.054628
2507.008789 0.060691
2506.821289 0.058985
2506.177734 0.063989
2505.982422 0.056787
2505.346680 0.063426
2505.142578 0.056774
2504.515625 0.062312
2504.302734 0.062765
2503.683594 0.066160
2503.461914 0.064933
2502.852539 0.058981
2502.622070 0.055099
2502.020508 0.052908
2501.781250 0.061631
2501.188477 0.057858
2500.940430 0.057800
2500.356445 0.060051
2500.099609 0.054516
2499.524414 0.060591
2499.258789 0.060499
2498.691406 0.055072
2498.416992 0.061030
2497.859375 0.055613
2497.576172 0.056658
2497.026367 0.055602
2496.734375 0.054467
2496.193359 0.063848
2495.892578 0.058266
2495.360352 0.057783
2495.050781 0.064241
2494.527344 0.064925
2494.208008 0.063138
2493.694336 0.063813
2493.365234 0.058770
2492.860352 0.059951
2492.523438 0.060933
2492.027344 0.062140
2491.680664 0.060375
2491.193359 0.059929
2490.836914 0.065255
2490.359375 0.059918
2489.994141 0.061435
2489.525391 0.067052
2489.150391 0.059247
2488.691406 0.056049
2488.306641 0.059776
2487.856445 0.060984
2487.462891 0.057046
2487.022461 0.065916
2486.619141 0.063008
2486.187500 0.068101
2485.775391 0.066252
2485.352539 0.063146
2484.930664 0.065151
2484.517578 0.062585
2484.085938 0.054823
2483.682617 0.062025
2483.241211 0.064578
2482.846680 0.060916
2482.396484 0.061308
2482.011719 0.072427
2481.550781 0.064006
2481.175781 0.059796
2480.706055 0.061280
2480.339844 0.061979
2479.860352 0.063434
2479.503906 0.061419
2479.014648 0.065588
2478.667969 0.069632
2478.168945 0.056360
2477.832031 0.059203
2477.322266 0.059056
2476.995117 0.063029
2476.476563 0.066084
2476.158203 0.063017
2475.629883 0.065527
2475.322266 0.067388
2474.783203 0.063888
2474.485352 0.061350
2473.936523 0.064414
2473.647461 0.063530
2473.088867 0.067646
2472.810547 0.066255
2472.242188 0.066008
2471.973633 0.071170
2471.394531 0.065992
2471.135742 0.055831
2470.546875 0.064895
2470.297852 0.062935
2469.698242 0.060014
2469.459961 0.066753
2468.850586 0.066487
2468.622070 0.063458
2468.001953 0.061067
2467.784180 0.063993
2467.153320 0.064835
2466.946289 0.057966
2466.304688 0.066440
2466.107422 0.065063
2465.456055 0.060484
2465.268555 0.067237
2464.607422 0.061550
2464.429688 0.064492
2463.757813 0.055598
2463.590820 0.070491
2462.908203 0.059902
2462.751953 0.063375
2462.058594 0.066902
2461.913086 0.064456
2461.208984 0.067426
2461.073242 0.059528
2460.358398 0.059860
2460.233398 0.062247
2459.508789 0.066316
2459.394531 0.064419
2458.658203 0.070613
2458.554688 0.068228
2457.807617 0.062513
2457.713867 0.063849
2456.956055 0.070580
2456.874023 0.060018
2456.105469 0.060329
2456.033203 0.066007
2455.253906 0.063008
2455.193359 0.060541
2454.402344 0.067300
2454.352539 0.074708
2453.550781 0.060825
2453.511719 0.063244
2452.699219 0.063501
2452.670898 0.067048
2451.846680 0.060796
2451.829102 0.068125
2450.995117 0.060782
2450.988281 0.061574
2450.146484 0.069910
2450.142578 0.065376
2449.304688 0.063441
2449.290039 0.055559
2448.462891 0.057514
2448.436523 0.059360
2447.621094 0.061527
2447.583984 0.061799
2446.779297 0.056616
2446.730469 0.063934
2445.937500 0.062592
2445.876953 0.059085
2445.094727 0.062036
2445.023438 0.061756
2444.251953 0.067465
2444.169922 0.066036
2443.409180 0.061469
2443.315430 0.055822
2442.566406 0.056018
2442.460938 0.061175
2441.723633 0.059814
2441.606445 0.052577
2440.879883 0.063065
2440.751953 0.057928
2440.037109 0.061422
2439.897461 0.061132
2439.193359 0.057063
2439.041992 0.062189
2438.349609 0.054879
2438.186523 0.061638
2437.505859 0.057041
2437.331055 0.058945
2436.662109 0.061376
2436.475586 0.053037
2435.817383 0.062993
2435.619141 0.061594
2434.973633 0.055923
2434.763672 0.063186
2434.128906 0.061883
2433.907227 0.061565
2433.284180 0.062957
2433.050781 0.063156
2432.439453 0.061317
2432.194336 0.061536
2431.593750 0.067816
2431.336914 0.063126
2430.749023 0.061836
2430.479492 0.057762
2429.903320 0.069417
2429.622070 0.056144
2429.058594 0.067235
2428.764648 0.052389
2428.212891 0.056922
2427.907227 0.059324
2427.367188 0.063415
2427.048828 0.059310
2426.520508 0.061777
2426.191406 0.053420
2425.674805 0.063933
2425.333008 0.064622
2424.828125 0.063379
2424.473633 0.061403
2423.982422 0.064450
2423.615234 0.058719
2423.135742 0.058481
2422.755859 0.065109
2422.289063 0.069298
2421.897461 0.062959
2421.441406 0.065495
2421.038086 0.062944
2420.594727 0.064401
2420.177734 0.054930
2419.747070 0.057895
2419.318359 0.059182
2418.900391 0.057884
2418.458008 0.065031
2418.052734 0.056791
2417.597656 0.058087
2417.205078 0.063810
2416.737305 0.064467
2416.356445 0.058932
2415.876953 0.064984
2415.508789 0.060002
2415.015625 0.059110
2414.660156 0.067016
2414.155273 0.056966
2413.812500 0.063221
2413.293945 0.052162
2412.963867 0.061588
2412.115234 0.063197
2411.266602 0.060484
2410.416992 0.061013
2409.568359 0.062081
2408.718750 0.062608
2407.869141 0.054502
2407.019531 0.060426
2406.169922 0.058796
2405.319336 0.066875
2404.469727 0.064166
2403.619141 0.065771
2402.768555 0.061985
2401.917969 0.065745
2401.066406 0.066271
2400.215820 0.057640
2399.364258 0.062476
2398.513672 0.062464
2397.662109 0.061913
2396.810547 0.062440
2395.958008 0.065656
2395.106445 0.060801
2394.253906 0.061865
2393.402344 0.069383
2392.549805 0.065606
2391.697266 0.068281
2390.843750 0.056442
2389.991211 0.059656
2389.137695 0.059107
2388.284180 0.055872
2387.430664 0.063918
2386.577148 0.066054
2385.723633 0.063893
2384.869141 0.061197
2384.015625 0.066015
2383.161133 0.063856
2382.306641 0.065989
2381.452148 0.075095
2380.597656 0.064891
2379.742188 0.068096
2378.886719 0.065938
2378.032227 0.066461
2377.176758 0.069128
2376.320313 0.054648
2375.464844 0.066958
2374.609375 0.066409
2373.752930 0.064255
2372.896484 0.061565
2372.040039 0.066906
2371.183594 0.055655
2370.326172 0.067415
2369.469727 0.067936
2368.612305 0.063110
2367.754883 0.065236
2366.897461 0.064154
2366.040039 0.070021
2365.182617 0.056647
2364.324219 0.062514
2363.465820 0.065707
2362.607422 0.066762
2361.749023 0.063545
2360.890625 0.070473
2360.031250 0.066189
2359.172852 0.071513
2358.313477 0.071499
2357.454102 0.062416
2356.594727 0.061337
2355.735352 0.067724
2354.875000 0.065578
2354.015625 0.073028
2353.155273 0.065019
2352.294922 0.068736
2351.434570 0.059666
2350.573242 0.068709
2349.712891 0.062838
2348.851563 0.062293
2347.990234 0.068136
2347.128906 0.064930
2346.267578 0.066513
2345.406250 0.060648
2344.543945 0.068083
2343.681641 0.064878
2342.819336 0.061676
2341.957031 0.061132
2341.094727 0.067497
2340.232422 0.073329
2339.369141 0.072783
2338.505859 0.070644
2337.642578 0.064789
2336.779297 0.078050
2335.916016 0.061578
2335.051758 0.068996
2334.188477 0.064207
2333.324219 0.063664
2332.459961 0.070547
2331.595703 0.066820
2330.730469 0.070519
2329.866211 0.068914
2329.000977 0.068371
2328.135742 0.073126
2327.270508 0.067284
2326.405273 0.074686
2325.540039 0.068316
2324.673828 0.065656
2323.807617 0.070936
2322.941406 0.069334
2322.075195 0.073025
2321.208984 0.073539
2320.341797 0.067177
2319.475586 0.067693
2318.608398 0.068737
2317.741211 0.076124
2316.874023 0.068709
2316.005859 0.070809
2315.138672 0.064984
2314.270508 0.069725
2313.402344 0.067070
2312.534180 0.067057
2311.666016 0.064932
2310.797852 0.067558
2309.928711 0.070711
2309.059570 0.069114
2308.190430 0.066990
2307.321289 0.075415
2306.452148 0.076982
2305.582031 0.068004
2304.712891 0.070099
2303.842773 0.070085
2302.972656 0.069544
2302.102539 0.070584
2301.231445 0.067936
2300.361328 0.070029
2299.490234 0.070541
2298.619141 0.068422
2297.748047 0.075775
2296.876953 0.067342
2296.004883 0.072589
2295.133789 0.074678
2294.261719 0.072034
2293.389648 0.067814
2292.517578 0.063070
2291.645508 0.070414
2290.772461 0.073552
2289.899414 0.074063
2289.027344 0.070372
2288.153320 0.072983
2287.280273 0.073493
2286.407227 0.072954
2285.533203 0.073989
2284.660156 0.073974
2283.786133 0.081302
2282.911133 0.068175
2282.037109 0.075502
2281.163086 0.070245
2280.288086 0.082285
2279.413086 0.078077
2278.538086 0.068631
2277.663086 0.076474
2276.787109 0.080124
2275.912109 0.078537
2275.036133 0.063341
2274.160156 0.064898
2273.284180 0.081106
2272.408203 0.079520
2271.531250 0.070089
2270.655273 0.079488
2269.778320 0.072675
2268.901367 0.069001
2268.024414 0.071601
2267.146484 0.075244
2266.269531 0.070004
2265.391602 0.069990
2264.513672 0.071543
2263.635742 0.080926
2262.757813 0.071514
2261.878906 0.072543
2261.000000 0.067311
2260.122070 0.069905
2259.243164 0.074064
2258.363281 0.075613
2257.484375 0.079247
2256.604492 0.075061
2255.725586 0.081300
2254.845703 0.071905
2253.965820 0.075537
2253.084961 0.069792
2252.205078 0.079151
2251.324219 0.080176
2250.443359 0.073393
2249.562500 0.080144
2248.681641 0.079087
2247.800781 0.072828
2246.918945 0.074894
2246.037109 0.069679
2245.155273 0.081102
2244.273438 0.074329
2243.391602 0.080549
2242.509766 0.081053
2241.626953 0.073764
2240.744141 0.078423
2239.861328 0.071657
2238.978516 0.078391
2238.094727 0.082527
2237.211914 0.084586
2236.328125 0.069523
2235.444336 0.079883
2234.560547 0.075199
2233.675781 0.077777
2232.791992 0.074650
2231.907227 0.080855
2231.022461 0.076174
2230.137695 0.077195
2229.252930 0.082877
2228.368164 0.074056
2227.482422 0.077148
2226.596680 0.082826
2225.710938 0.077634
2224.825195 0.082792
2223.938477 0.082258
2223.052734 0.086379
2222.166016 0.080673
2221.279297 0.081691
2220.392578 0.072886
2219.505859 0.076489
2218.618164 0.081641
2217.731445 0.077491
2216.843750 0.079541
2215.956055 0.080558
2215.068359 0.087769
2214.179688 0.077944
2213.291016 0.076379
2212.403320 0.084103
2211.514648 0.076864
2210.625977 0.074269
2209.736328 0.079926
2208.847656 0.074754
2207.958008 0.079378
2207.068359 0.076270
2206.178711 0.081922
2205.289063 0.084480
2204.398438 0.080343
2203.507813 0.079811
2202.618164 0.084428
2201.727539 0.087499
2200.835938 0.078218
2199.945313 0.072543
2199.053711 0.076129
2198.162109 0.075599
2197.270508 0.071984
2196.378906 0.075567
2195.487305 0.080691
2194.594727 0.083244
2193.703125 0.078089
2192.810547 0.085264
2191.917969 0.084733
2191.024414 0.086769
2190.131836 0.076485
2189.238281 0.073903
2188.344727 0.082098
2187.451172 0.076438
2186.557617 0.087193
2185.664063 0.077432
2184.769531 0.077928
2183.875000 0.078937
2182.980469 0.075334
2182.085938 0.079417
2181.191406 0.080937
2180.295898 0.082457
2179.400391 0.082440
2178.504883 0.077303
2177.609375 0.081382
2176.713867 0.078807
2175.817383 0.076232
2174.921875 0.085424
2174.025391 0.081826
2173.128906 0.081298
2172.231445 0.080770
2171.334961 0.077175
2170.437500 0.080225
2169.540039 0.076632
2168.642578 0.082235
2167.745117 0.080686
2166.847656 0.077606
2165.949219 0.085757
2165.050781 0.075532
2164.152344 0.081129
2163.253906 0.090295
2162.354492 0.078545
2161.456055 0.078529
2160.556641 0.086160
2159.657227 0.084103
2158.757813 0.080518
2157.858398 0.083558
2156.958008 0.087616
2156.057617 0.079449
2155.157227 0.089616
2154.256836 0.086034
2153.356445 0.082453
2152.456055 0.079892
2151.554688 0.083945
2150.653320 0.084436
2149.751953 0.080350
2148.850586 0.082367
2147.948242 0.090992
2147.045898 0.088432
2146.144531 0.085873
2145.242188 0.088903
2144.338867 0.083297
2143.436523 0.090897
2142.533203 0.089862
2141.629883 0.080707
2140.726563 0.084750
2139.823242 0.087269
2138.919922 0.093338
2138.015625 0.086725
2137.111328 0.092792
2136.207031 0.089224
2135.302734 0.090219
2134.398438 0.089186
2133.493164 0.080555
2132.588867 0.086616
2131.683594 0.089636
2130.778320 0.090124
2129.872070 0.095167
2128.966797 0.096665
2128.060547 0.087537
2127.154297 0.091060
2126.248047 0.103685
2125.341797 0.093044
2124.434570 0.095047
2123.527344 0.091489
2122.620117 0.089448
2121.712891 0.091450
2120.805664 0.102039
2119.897461 0.099997
2118.990234 0.090887
2118.082031 0.087839
2117.173828 0.101448
2116.265625 0.090325
2115.356445 0.090811
2114.447266 0.085748
2113.539063 0.095815
2112.628906 0.095291
2111.719727 0.093759
2110.810547 0.089203
2109.900391 0.089184
2108.990234 0.085639
2108.080078 0.091665
2107.169922 0.092149
2106.258789 0.090619
2105.348633 0.096640
2104.437500 0.093600
2103.526367 0.094083
2102.615234 0.093057
2101.703125 0.095049
2100.791992 0.088493
2099.879883 0.088977
2098.967773 0.091471
2098.055664 0.087934
2097.142578 0.096958
2096.230469 0.094928
2095.317383 0.103947
2094.404297 0.092880
2093.490234 0.093362
2092.577148 0.100870
2091.663086 0.087803
2090.750000 0.088788
2089.835938 0.099301
2088.920898 0.094767
2088.006836 0.088731
2087.091797 0.099237
2086.177734 0.084685
2085.262695 0.091680
2084.346680 0.093664
2083.431641 0.096148
2082.515625 0.086114
2081.600586 0.092603
2080.684570 0.091082
2079.767578 0.089562
2078.851563 0.101548
2077.934570 0.093525
2077.017578 0.099005
2076.100586 0.098984
2075.183594 0.096463
2074.266602 0.098941
2073.348633 0.101418
2072.430664 0.084913
2071.512695 0.096381
2070.594727 0.095362
2069.676758 0.093345
2068.757813 0.097816
2067.838867 0.097296
2066.919922 0.104259
2066.000977 0.090771
2065.082031 0.091749
2064.162109 0.089236
2063.242188 0.098189
2062.322266 0.087205
2061.402344 0.096652
2060.481445 0.100616
2059.561523 0.090137
2058.640625 0.098581
2057.719727 0.096569
2056.798828 0.098539
2055.876953 0.102001
2054.956055 0.108446
2054.034180 0.096983
2053.112305 0.089504
2052.189453 0.096444
2051.267578 0.096921
2050.344727 0.092427
2049.421875 0.104331
2048.499023 0.098348
2047.576172 0.094851
2046.652344 0.096320
2045.729492 0.103248
2044.805664 0.101737
2043.881836 0.098242
2042.957031 0.103677
2042.033203 0.098199
2041.108398 0.100162
2040.183594 0.106089
2039.258789 0.097640
2038.333984 0.111494
2037.408203 0.101561
2036.483398 0.101044
2035.557617 0.109936
2034.630859 0.100505
2033.705078 0.107413
2032.778320 0.097987
2031.852539 0.099450
2030.925781 0.093578
2030.818359 0.097944
2029.999023 0.092092
2029.892578 0.103858
2029.071289 0.098017
2028.965820 0.101857
2028.144531 0.099485
2028.040039 0.099364
2027.216797 0.095015
2027.113281 0.100330
2026.289063 0.092030
2026.186523 0.109697
2025.361328 0.086078
2025.260742 0.105227
2024.432617 0.097934
2024.333008 0.112119
2023.503906 0.091489
2023.406250 0.108638
2022.576172 0.096417
2022.479492 0.099728
2021.647461 0.100356
2021.551758 0.105629
2020.717773 0.091936
2020.624023 0.103139
2019.789063 0.101804
2019.696289 0.102623
2018.859375 0.093881
2018.768555 0.103587
2017.929688 0.102264
2017.840820 0.104057
2017.000000 0.105704
2016.913086 0.109458
2016.070313 0.092845
2015.984375 0.104505
2015.139648 0.102705
2015.055664 0.105468
2014.209961 0.104168
2014.126953 0.105445
2013.279297 0.106619
2013.198242 0.111333
2012.348633 0.104133
2012.269531 0.105399
2011.416992 0.095726
2011.340820 0.097497
2010.486328 0.094723
2010.411133 0.100430
2009.554688 0.095200
2009.482422 0.111728
2008.623047 0.106034
2008.552734 0.110719
2007.691406 0.101578
2007.623047 0.109219
2006.759766 0.097616
2006.692383 0.110179
2005.827148 0.095134
2005.762695 0.107204
2004.894531 0.107932
2004.833008 0.103739
2003.961914 0.099536
2003.902344 0.113547
2003.029297 0.101982
2002.971680 0.108608
2002.096680 0.099009
2002.041016 0.113989
2001.163086 0.101947
2001.110352 0.106595
2000.229492 0.097498
2000.178711 0.114921
1999.295898 0.110281
1999.248047 0.114405
1998.362305 0.103371
1998.316406 0.110452
1997.427734 0.108766
1997.384766 0.104539
1996.494141 0.102843
1996.453125 0.109422
1995.559570 0.103317
1995.521484 0.112342
1994.625000 0.094445
1994.589844 0.095151
1993.689453 0.099838
1993.657227 0.104937
1992.754883 0.109655
1992.724609 0.104424
1991.819336 0.100786
1991.792969 0.106361
1990.883789 0.111583
1990.860352 0.109768
1989.948242 0.113529
1989.926758 0.103375
1989.012695 0.102699
1988.994141 0.111189
1988.076172 0.101207
1988.061523 0.110185
1987.139648 0.114943
1987.127930 0.114078
1986.203125 0.107065
1986.194336 0.109647
1985.266602 0.105573
1985.260742 0.109133
1984.330078 0.106536
1984.327148 0.106173
1983.392578 0.099155
1983.392578 0.112020
1982.458984 0.106990
1982.455078 0.112484
1981.524414 0.110406
1981.517578 0.106592
1980.589844 0.106952
1980.580078 0.120745
1979.655273 0.102028
1979.641602 0.108988
1978.720703 0.100538
1978.703125 0.106033
1977.786133 0.103463
1977.765625 0.105520
1976.850586 0.106876
1976.826172 0.108916
1975.915039 0.111759
1975.887695 0.113287
1974.979492 0.104388
1974.948242 0.111797
1974.043945 0.107799
1974.009766 0.106891
1973.108398 0.115619
1973.070313 0.116627
1972.172852 0.111190
1972.130859 0.109283
1971.236328 0.108232
1971.190430 0.111698
1970.299805 0.112130
1970.250000 0.113623
1969.363281 0.111620
1969.310547 0.111160
1968.426758 0.116005
1968.370117 0.109673
1967.490234 0.115985
1967.428711 0.113547
1966.553711 0.112050
1966.488281 0.115958
1965.616211 0.108605
1965.546875 0.113010
1964.678711 0.103694
1964.605469 0.116394
1963.741211 0.109544
1963.664063 0.119289
1962.803711 0.113436
1962.722656 0.105632
1961.866211 0.100706
1961.780273 0.114856
1960.928711 0.108997
1960.837891 0.109478
1959.990234 0.109955
1959.895508 0.110913
1959.051758 0.112866
1958.953125 0.112833
1958.113281 0.115777
1958.010742 0.107459
1957.174805 0.107942
1957.067383 0.113755
1956.236328 0.113294
1956.124023 0.113244
1955.296875 0.106926
1955.180664 0.113218
1954.357422 0.108371
1954.237305 0.115622
1953.418945 0.105912
1953.292969 0.117539
1952.479492 0.105892
1952.349609 0.112171
1951.539063 0.110752
1951.405273 0.121855
1950.599609 0.109269
1950.460938 0.114548
1949.660156 0.112663
1949.515625 0.114037
1948.719727 0.110692
1948.571289 0.117892
1947.779297 0.112135
1947.625977 0.117866
1946.838867 0.119914
1946.680664 0.110565
1945.898438 0.118917
1945.735352 0.117813
1944.957031 0.110125
1944.789063 0.113909
1944.016602 0.112541
1943.842773 0.120183
1943.075195 0.120801
1942.896484 0.118218
1942.133789 0.114935
1941.950195 0.126426
1941.192383 0.116375
1941.003906 0.126397
1940.250977 0.124630
1940.056641 0.123948
1939.308594 0.115359
1939.110352 0.111818
1938.366211 0.120691
1938.163086 0.105986
1937.424805 0.109478
1937.215820 0.121929
1936.482422 0.121133
1936.267578 0.123352
1935.539063 0.115275
1935.319336 0.117037
1934.596680 0.117685
1934.372070 0.119912
1933.654297 0.110857
1933.422852 0.116985
1932.710938 0.127364
1932.474609 0.120824
1931.767578 0.120537
1931.526367 0.118381
1930.824219 0.118085
1930.577148 0.114490
1929.880859 0.123408
1929.627930 0.120259
1928.936523 0.118527
1928.678711 0.122164
1927.993164 0.127248
1927.728516 0.122619
1927.048828 0.113142
1926.779297 0.118247
1926.104492 0.119918
1925.829102 0.126423
1925.160156 0.127178
1924.878906 0.123500
1924.215820 0.114051
1923.928711 0.123954
1923.270508 0.117426
1922.977539 0.128266
1922.326172 0.116919
1922.026367 0.128719
1921.380859 0.119808
1921.075195 0.117604
1920.435547 0.121241
1920.124023 0.118059
1919.490234 0.122673
1919.172852 0.123332
1918.543945 0.124105
1918.220703 0.123304
1917.598633 0.119235
1917.268555 0.128573
1916.652344 0.114851
1916.316406 0.120359
1915.706055 0.120160
1915.364258 0.125145
1914.759766 0.129342
1914.411133 0.119342
1913.813477 0.116241
1913.458984 0.123163
1912.866211 0.115251
1912.505859 0.125059
1911.919922 0.125396
1911.552734 0.123588
1910.972656 0.118596
1910.598633 0.127406
1910.025391 0.126318
1909.645508 0.125935
1909.078125 0.120488
1908.691406 0.127828
1908.129883 0.117563
1907.737305 0.123475
1907.182617 0.119959
1906.782227 0.125848
1906.234375 0.126708
1905.828125 0.136384
1905.286133 0.129102
1904.873047 0.120509
1904.337891 0.131495
1903.917969 0.120962
1903.389648 0.112620
1902.962891 0.121414
1902.440430 0.117914
1902.006836 0.124265
1901.492188 0.121275
1901.051758 0.121358
1900.542969 0.116904
1900.095703 0.127085
1899.593750 0.124610
1899.139648 0.128974
1898.644531 0.125070
1898.183594 0.116002
1897.695313 0.130357
1897.226563 0.133707
1896.745117 0.119713
1896.269531 0.120260
1895.794922 0.124999
1895.312500 0.125502
1894.844727 0.120633
1894.355469 0.125473
1893.894531 0.124470
1893.398438 0.121135
1892.944336 0.126376
1892.440430 0.125415
1891.994141 0.122977
1891.482422 0.122036
1891.042969 0.124400
1890.524414 0.122008
1890.091797 0.121966
1889.566406 0.128677
1889.140625 0.118569
1888.607422 0.124821
1888.189453 0.129149
1887.648438 0.116186
1887.238281 0.119488
1886.689453 0.132411
1886.286133 0.123320
1885.730469 0.130469
1885.334961 0.136782
1884.770508 0.124228
1884.382813 0.131459
1883.811523 0.121333
1883.430664 0.121805
1882.851563 0.134677
1882.477539 0.129484
1881.891602 0.136078
1881.525391 0.125128
1880.930664 0.134137
1880.572266 0.126067
1879.970703 0.126470
1879.619141 0.128448
1879.009766 0.131212
1878.666016 0.122171
1878.048828 0.127365
1877.712891 0.123591
1877.086914 0.126382
1876.759766 0.123567
1876.125977 0.119677
1875.805664 0.123063
1875.164063 0.132520
1874.852539 0.131211
1874.202148 0.128676
1873.898438 0.134069
1873.240234 0.132935
1872.943359 0.122513
1872.277344 0.132904
1871.989258 0.122970
1871.315430 0.122395
1871.035156 0.124868
1870.352539 0.124747
1870.080078 0.131566
1869.389648 0.134239
1869.125000 0.122900
1868.425781 0.133731
1868.169922 0.124796
1867.462891 0.138458
1867.214844 0.128612
1866.499023 0.132717
1866.258789 0.122830
1865.535156 0.123650
1865.303711 0.127123
1864.570313 0.136459
1864.347656 0.128058
1863.606445 0.141656
1863.391602 0.133309
1862.641602 0.124039
1862.435547 0.122736
1861.676758 0.137313
1861.479492 0.128944
1860.711914 0.133006
1860.522461 0.129398
1859.746094 0.124103
1859.565430 0.136299
1858.781250 0.125516
1858.608398 0.133893
1857.815430 0.125492
1857.651367 0.125792
1856.849609 0.130257
1856.694336 0.140949
1855.882813 0.120656
1855.736328 0.130478
1854.916992 0.128771
1854.779297 0.126652
1853.950195 0.125396
1853.821289 0.137530
1852.983398 0.132550
1852.863281 0.135127
1852.015625 0.145442
1851.905273 0.129881
1851.048828 0.128194
1850.946289 0.135537
1850.081055 0.134865
1849.988281 0.141190
1849.113281 0.136751
1849.029297 0.134525
1848.145508 0.139115
1848.070313 0.151069
1847.176758 0.137655
1847.111328 0.135409
1846.208008 0.135717
1846.151367 0.133957
1845.239258 0.129002
1845.192383 0.137711
1844.270508 0.132321
1844.232422 0.144775
1843.301758 0.136116
1843.272461 0.145687
1842.332031 0.132269
1842.312500 0.132411
1841.362305 0.143702
1841.352539 0.135217
1840.392578 0.142242
1840.391602 0.147474
1839.430664 0.147941
1839.422852 0.132790
1838.470703 0.133122
1838.452148 0.143624
1837.508789 0.148361
1837.481445 0.149731
1836.547852 0.155010
1836.510742 0.156306
1835.586914 0.136382
1835.540039 0.150604
1834.625000 0.137309
1834.568359 0.153400
1833.663086 0.151107
1833.597656 0.144869
1832.701172 0.155366
1832.625000 0.161818
1831.739258 0.145330
1831.653320 0.156592
1830.777344 0.143396
1830.681641 0.156083
1829.814453 0.146226
1829.708984 0.168303
1828.851563 0.152865
1828.736328 0.147053
1827.888672 0.153787
1827.763672 0.155500
1826.925781 0.153281
1826.790039 0.146512
1825.962891 0.160391
1825.817383 0.151186
1824.999023 0.148463
1824.843750 0.156330
1824.035156 0.151289
1823.869141 0.160058
1823.071289 0.152687
1822.895508 0.145901
1822.107422 0.152657
1821.920898 0.155747
1821.143555 0.152152
1820.947266 0.163707
1820.178711 0.154974
1819.971680 0.146736
1819.214844 0.150191
1818.997070 0.150462
1818.250000 0.140183
1818.021484 0.147606
1817.285156 0.152508
1817.046875 0.148040
1816.319336 0.144878
1816.070313 0.148474
1815.354492 0.146749
1815.094727 0.144211
1814.388672 0.151944
1814.119141 0.152160
1813.422852 0.149066
1813.142578 0.149306
1812.457031 0.137171
1812.166016 0.156311
1811.491211 0.145685
1811.188477 0.141256
1810.525391 0.144234
1810.211914 0.145914
1809.558594 0.148475
1809.234375 0.139312
1808.591797 0.151291
1808.256836 0.150064
1807.625000 0.154106
1807.279297 0.146277
1806.658203 0.147439
1806.300781 0.146241
1805.690430 0.150254
1805.322266 0.151361
1804.723633 0.151172
1804.343750 0.148044
1803.755859 0.138350
1803.365234 0.145198
1802.788086 0.144955
1802.386719 0.149846
1801.820313 0.135928
1801.407227 0.149809
1800.851563 0.144898
1800.427734 0.150709
1799.883789 0.142502
1799.448242 0.156755
1798.915039 0.151467
1798.467773 0.157185
1797.946289 0.150491
1797.488281 0.153873
1796.977539 0.153300
1796.507813 0.140743
1796.007813 0.154216
1795.527344 0.155668
1795.039063 0.145673
1794.545898 0.146282
1794.069336 0.155574
1793.564453 0.156059
1793.099609 0.159798
1792.583008 0.162093
1792.129883 0.160240
1791.601563 0.151779
1791.160156 0.149811
1790.620117 0.148474
1790.189453 0.163956
1789.637695 0.154039
1789.218750 0.161562
1788.655273 0.155401
1788.248047 0.149722
1787.672852 0.158163
1787.277344 0.151581
1786.690430 0.157657
1786.306641 0.155328
1785.707031 0.155753
1785.334961 0.153882
1784.723633 0.149188
1784.364258 0.158570
1783.740234 0.164533
1783.392578 0.158067
1782.756836 0.150513
1782.420898 0.164169
1781.772461 0.163986
1781.448242 0.160363
1780.788086 0.156028
1780.476563 0.161274
1779.803711 0.156921
1779.503906 0.156056
1778.819336 0.155951
1778.531250 0.165452
1777.833984 0.162428
1777.558594 0.166362
1776.848633 0.154943
1776.585938 0.161146
1775.863281 0.156766
1775.612305 0.163470
1774.877930 0.164633
1774.638672 0.165792
1773.891602 0.172497
1773.666016 0.166701
1772.905273 0.169665
1772.691406 0.164784
1771.918945 0.162652
1771.717773 0.175578
1770.931641 0.178838
1770.744141 0.158430
1769.945313 0.167509
1769.769531 0.176971
1768.958008 0.171239
1768.794922 0.174605
1767.970703 0.174968
1767.820313 0.169455
1766.982422 0.172112
1766.845703 0.170805
1765.995117 0.174428
1765.870117 0.182363
1765.006836 0.174393
1764.894531 0.177215
1764.018555 0.173888
1763.919922 0.177171
1763.029297 0.178083
1762.944336 0.177590
1762.041016 0.195429
1761.967773 0.178010
1761.051758 0.179421
1760.992188 0.179819
1760.062500 0.183141
1760.015625 0.167264
1759.072266 0.186861
1759.039063 0.176950
1758.083008 0.192926
1758.062500 0.173201
1757.092773 0.169891
1757.085938 0.186121
1756.108398 0.171734
1756.101563 0.183760
1755.131836 0.179674
1755.111328 0.180475
1754.154297 0.188550
1754.120117 0.176266
1753.176758 0.188043
1753.128906 0.179460
1752.198242 0.187537
1751.220703 0.185155
1750.242188 0.191211
1749.263672 0.178053
1748.285156 0.168648
1747.306641 0.185475
1746.327148 0.184970
1745.348633 0.179314
1744.369141 0.181150
1743.389648 0.182050
1742.409180 0.176399
1741.429688 0.178702
1740.449219 0.182408
1739.468750 0.179098
1738.488281 0.188412
1737.507813 0.175754
1736.526367 0.173381
1735.544922 0.187364
1734.563477 0.176582
1733.582031 0.181216
1732.600586 0.190519
1731.618164 0.174607
1730.636719 0.186241
1729.654297 0.188537
1728.671875 0.185233
1727.688477 0.178664
1726.706055 0.180960
1725.722656 0.183721
1724.739258 0.187414
1723.755859 0.188308
1722.771484 0.177086
1721.788086 0.181709
1720.803711 0.178877
1719.819336 0.181635
1718.834961 0.173683
1717.850586 0.187148
1716.865234 0.181059
1715.879883 0.188003
1714.894531 0.183777
1713.909180 0.186531
1712.923828 0.179517
1711.937500 0.193430
1710.951172 0.194785
1709.964844 0.188238
1708.978516 0.188200
1707.991211 0.181193
1707.004883 0.189053
1706.017578 0.184370
1705.030273 0.196869
1704.042969 0.185687
1703.054688 0.181008
1702.066406 0.193036
1701.078125 0.192997
1700.089844 0.178578
1699.101563 0.186889
1698.113281 0.196588
1697.124023 0.194230
1696.134766 0.193263
1695.145508 0.177469
1694.155273 0.180676
1693.166016 0.191292
1692.175781 0.191716
1691.185547 0.187973
1690.195313 0.184694
1689.205078 0.180028
1688.213867 0.193410
1687.222656 0.190132
1686.231445 0.193331
1685.240234 0.186355
1684.249023 0.178919
1683.256836 0.189514
1682.264648 0.193172
1681.272461 0.200063
1680.280273 0.180158
1679.287109 0.181507
1678.294922 0.173620
1677.301758 0.183279
1676.308594 0.192473
1675.315430 0.175820
1674.321289 0.194239
1673.327148 0.187741
1672.333008 0.195081
1671.338867 0.193658
1670.344727 0.183476
1669.349609 0.190813
1668.355469 0.184322
1667.360352 0.195802
1666.365234 0.191156
1665.369141 0.189735
1664.374023 0.182789
1663.377930 0.183672
1662.381836 0.190077
1661.384766 0.196480
1660.388672 0.189079
1659.391602 0.189500
1658.395508 0.186242
1657.397461 0.185283
1656.400391 0.188923
1655.403320 0.188424
1654.405273 0.203088
1653.407227 0.198912
1652.409180 0.196574
1651.411133 0.198829
1650.412109 0.213020
1649.413086 0.205173
1648.414063 0.210637
1647.415039 0.196371
1646.416016 0.194036
1645.416016 0.188034
1644.416016 0.193497
1643.416016 0.200334
1642.416016 0.205792
1641.415039 0.195210
1640.415039 0.207539
1639.414063 0.209786
1638.413086 0.194172
1637.411133 0.196421
1636.410156 0.217895
1635.408203 0.200916
1634.406250 0.207738
1633.404297 0.210440
1632.402344 0.215427
1631.399414 0.225900
1630.396484 0.224024
1629.393555 0.215750
1628.390625 0.204737
1627.387695 0.212918
1626.383789 0.220183
1625.379883 0.214656
1624.375977 0.211872
1623.372070 0.218219
1622.367188 0.219999
1621.362305 0.225886
1620.357422 0.212151
1619.352539 0.213475
1618.347656 0.222552
1617.341797 0.224329
1616.335938 0.223370
1615.330078 0.230160
1614.324219 0.230112
1613.318359 0.229608
1612.311523 0.220451
1611.304688 0.223592
1610.297852 0.231285
1609.291016 0.231237
1608.283203 0.235739
1607.275391 0.226135
1606.267578 0.235641
1605.259766 0.239230
1604.251953 0.239634
1603.243164 0.228673
1602.234375 0.236807
1601.225586 0.235394
1600.216797 0.229892
1599.207031 0.239837
1598.198242 0.232066
1597.188477 0.231564
1596.178711 0.227429
1595.167969 0.229197
1594.158203 0.233233
1593.147461 0.231369
1592.136719 0.234042
1591.125977 0.227190
1590.114258 0.218075
1589.103516 0.234800
1588.091797 0.224781
1587.080078 0.216125
1586.067383 0.232840
1585.055664 0.211505
1584.042969 0.214630
1583.030273 0.208699
1582.017578 0.217708
1581.003906 0.230785
1579.991211 0.230736
1578.977539 0.225712
1577.963867 0.229734
1576.949219 0.228781
1575.935547 0.205227
1574.920898 0.220098
1573.906250 0.208755
1572.891602 0.225426
1571.876953 0.216797
1570.861328 0.220815
1569.845703 0.218962
1568.830078 0.212145
1567.814453 0.217516
1566.797852 0.222433
1565.782227 0.216973
1564.765625 0.215123
1563.749023 0.217332
1562.731445 0.220892
1561.714844 0.212282
1560.697266 0.214940
1559.679688 0.203632
1558.662109 0.206742
1557.643555 0.216605
1556.625000 0.208455
1555.607422 0.226866
1554.587891 0.211517
1553.569336 0.211022
1552.549805 0.218624
1551.531250 0.205985
1550.511719 0.202793
1549.491211 0.216687
1548.471680 0.218438
1547.451172 0.211202
1546.430664 0.199476
1545.410156 0.222342
1544.389648 0.211516
1543.368164 0.203839
1542.346680 0.210977
1541.325195 0.213176
1540.303711 0.207747
1539.282227 0.215777
1538.259766 0.203622
1537.237305 0.212546
1536.214844 0.206225
1535.191406 0.199905
1534.168945 0.210170
1533.145508 0.205197
1532.122070 0.205601
1531.098633 0.211379
1530.074219 0.207752
1529.050781 0.212184
1528.026367 0.208558
1527.000977 0.213883
1525.976563 0.223231
1524.951172 0.222736
1523.926758 0.211510
1522.901367 0.206100
1521.875000 0.212760
1520.849609 0.208693
1519.823242 0.211329
1518.796875 0.217537
1517.770508 0.228209
1516.743164 0.213872
1515.716797 0.219629
1514.689453 0.213334
1513.662109 0.221766
1512.634766 0.208781
1511.606445 0.224793
1510.578125 0.228312
1509.549805 0.222913
1508.521484 0.232226
1507.493164 0.215687
1506.463867 0.221433
1505.434570 0.218267
1504.405273 0.224010
1503.375977 0.227078
1502.345703 0.223468
1501.315430 0.235437
1500.285156 0.221147
1499.254883 0.225993
1498.223633 0.227279
1497.193359 0.235234
1496.162109 0.240074
1495.130859 0.226243
1494.098633 0.234193
1493.067383 0.217260
1492.035156 0.236313
1491.002930 0.236262
1489.969727 0.233103
1488.937500 0.244595
1487.904297 0.237441
1486.871094 0.224966
1485.837891 0.232015
1484.803711 0.216885
1483.770508 0.242557
1482.736328 0.236298
1481.702148 0.228712
1480.666992 0.237525
1479.632813 0.239689
1478.597656 0.249382
1477.562500 0.240028
1476.527344 0.236877
1475.491211 0.235498
1474.455078 0.229251
1473.418945 0.223006
1472.382813 0.236229
1471.346680 0.235294
1470.309570 0.248950
1469.272461 0.228560
1468.235352 0.228953
1467.198242 0.245253
1466.160156 0.228853
1465.122070 0.234104
1464.083984 0.234495
1463.045898 0.226055
1462.006836 0.240132
1460.968750 0.240521
1459.929688 0.233850
1458.889648 0.235123
1457.850586 0.245656
1456.810547 0.237225
1455.771484 0.239818
1454.730469 0.244614
1453.690430 0.252934
1452.649414 0.245389
1451.609375 0.252823
1450.568359 0.251888
1449.526367 0.263720
1448.485352 0.250457
1447.443359 0.249082
1446.401367 0.249028
1445.359375 0.248974
1444.316406 0.251558
1443.274414 0.251503
1442.231445 0.243975
1441.188477 0.255349
1440.144531 0.262763
1439.101563 0.262266
1438.057617 0.264844
1437.013672 0.262152
1435.968750 0.278338
1434.924805 0.274766
1433.879883 0.284799
1432.834961 0.292195
1431.790039 0.304851
1430.744141 0.292067
1429.698242 0.304718
1428.653320 0.315610
1427.606445 0.313349
1426.560547 0.336941
1425.513672 0.332486
1424.466797 0.331538
1423.419922 0.332778
1422.373047 0.328765
1421.325195 0.310749
1420.277344 0.327746
1419.229492 0.313237
1418.181641 0.324978
1417.132813 0.301293
1416.084961 0.311719
1415.036133 0.322141
1413.986328 0.305901
1412.937500 0.313261
1411.887695 0.328480
1410.837891 0.333649
1409.788086 0.333139
1408.738281 0.326081
1407.687500 0.345212
1406.636719 0.328992
1405.585938 0.342878
1404.534180 0.334952
1403.483398 0.329646
1402.431641 0.327394
1401.379883 0.322963
1400.327148 0.332478
1399.275391 0.312365
1398.222656 0.319700
1397.169922 0.315275
1396.117188 0.310416
1395.063477 0.317747
1394.009766 0.318547
1392.956055 0.301074
1391.902344 0.321886
1390.848633 0.299636
1389.793945 0.330874
1388.739258 0.318630
1387.684570 0.323774
1386.628906 0.327613
1385.574219 0.343613
1384.518555 0.340497
1383.462891 0.320448
1382.406250 0.333834
1381.350586 0.354593
1380.293945 0.362759
1379.237305 0.372656
1378.179688 0.387320
1377.123047 0.396774
1376.065430 0.400588
1375.007813 0.400932
1373.949219 0.399976
1372.891602 0.408552
1371.833008 0.394168
1370.774414 0.381954
1369.715820 0.385333
1368.656250 0.352782
1367.596680 0.350107
1366.537109 0.322771
1365.477539 0.314480
1364.417969 0.297544
1363.357422 0.304395
1362.296875 0.305192
1361.236328 0.294319
1360.174805 0.292525
1359.113281 0.289868
1358.052734 0.284620
1356.990234 0.285420
1355.928711 0.275427
1354.866211 0.283135
1353.803711 0.298174
1352.741211 0.272654
1351.678711 0.277769
1350.615234 0.284175
1349.551758 0.278507
1348.488281 0.283186
1347.424805 0.280968
1346.360352 0.281336
1345.295898 0.292472
1344.231445 0.298005
1343.166992 0.293632
1342.101563 0.293136
1341.036133 0.281881
1339.970703 0.289132
1338.905273 0.291218
1337.838867 0.292013
1336.772461 0.308286
1335.706055 0.300479
1334.639648 0.302990
1333.572266 0.321398
1332.504883 0.289536
1331.437500 0.310945
1330.370117 0.287259
1329.302734 0.321967
1328.234375 0.318032
1327.166016 0.309807
1326.096680 0.329471
1325.028320 0.307952
1323.958984 0.319889
1322.889648 0.306527
1321.820313 0.306886
1320.750000 0.324386
1319.679688 0.308033
1318.609375 0.295542
1317.539063 0.299329
1316.468750 0.294980
1315.397461 0.299194
1314.326172 0.290567
1313.254883 0.290929
1312.182617 0.288725
1311.142578 0.279251
1311.110352 0.284694
1310.069336 0.275767
1310.038086 0.275717
1308.997070 0.291948
1308.965820 0.280369
1307.923828 0.282053
1307.892578 0.284592
1306.851563 0.275580
1306.820313 0.267025
1305.778320 0.262703
1305.747070 0.257579
1304.704102 0.278017
1304.672852 0.272481
1303.630859 0.259168
1303.599609 0.258341
1302.557617 0.264658
1302.525391 0.280495
1301.483398 0.254355
1301.451172 0.260809
1300.409180 0.259418
1300.376953 0.272286
1299.334961 0.261492
1299.301758 0.261569
1298.259766 0.254608
1298.227539 0.264508
1297.185547 0.258388
1297.152344 0.261048
1296.110352 0.260887
1296.076172 0.271236
1295.035156 0.265089
1295.000977 0.282700
1293.959961 0.279090
1293.924805 0.274975
1292.883789 0.263265
1292.848633 0.261286
1291.808594 0.267631
1291.772461 0.271722
1290.732422 0.268861
1290.695313 0.272938
1289.656250 0.286704
1289.618164 0.279687
1288.580078 0.283671
1288.541016 0.295796
1287.502930 0.281916
1287.463867 0.287218
1286.426758 0.287826
1286.386719 0.296086
1285.349609 0.286496
1285.308594 0.290915
1284.272461 0.290275
1284.230469 0.290849
1283.195313 0.282562
1283.152344 0.276328
1282.118164 0.273576
1282.073242 0.277115
1281.040039 0.273100
1280.994141 0.269828
1279.961914 0.267947
1279.915039 0.272315
1278.883789 0.265771
1278.835938 0.275650
1277.805664 0.265298
1277.755859 0.270492
1276.727539 0.277151
1276.676758 0.261939
1275.648438 0.270300
1275.596680 0.255937
1274.569336 0.259628
1274.515625 0.246967
1273.490234 0.259155
1273.435547 0.258365
1272.411133 0.248913
1272.354492 0.245581
1271.332031 0.254389
1271.273438 0.248069
1270.251953 0.262834
1270.191406 0.249284
1269.171875 0.253021
1269.110352 0.246684
1268.091797 0.258068
1268.028320 0.245780
1267.011719 0.250382
1266.946289 0.236402
1265.931641 0.241001
1265.864258 0.248631
1264.850586 0.243926
1264.781250 0.249421
1263.769531 0.246850
1263.698242 0.249787
1262.688477 0.246380
1262.615234 0.239994
1261.607422 0.235735
1261.532227 0.236554
1260.526367 0.253495
1260.448242 0.244538
1259.444336 0.242005
1259.364258 0.259709
1258.362305 0.256368
1258.280273 0.246117
1257.280273 0.261828
1257.196289 0.247328
1256.198242 0.250342
1256.111328 0.245580
1255.115234 0.257072
1255.026367 0.256088
1254.033203 0.239663
1253.941406 0.250959
1252.950195 0.251472
1252.856445 0.226825
1251.867188 0.248886
1251.770508 0.244931
1250.783203 0.252648
1250.684570 0.244030
1249.700195 0.237369
1249.598633 0.245662
1248.616211 0.251285
1248.511719 0.250247
1247.532227 0.252930
1247.425781 0.242595
1246.448242 0.250768
1246.338867 0.241274
1245.364258 0.266365
1245.250977 0.252182
1244.279297 0.259129
1244.164063 0.245378
1243.195313 0.245978
1243.076172 0.260917
1242.110352 0.247622
1241.988281 0.256221
1241.024414 0.257715
1240.900391 0.253634
1239.939453 0.263158
1239.812500 0.256945
1238.853516 0.254240
1238.723633 0.264886
1237.768555 0.263481
1237.634766 0.248826
1236.682617 0.262587
1236.544922 0.256766
1235.595703 0.266337
1235.456055 0.257548
1234.509766 0.264599
1234.366211 0.256225
1233.422852 0.260751
1233.276367 0.257007
1232.336914 0.256484
1232.186523 0.254424
1231.250000 0.254748
1231.095703 0.252263
1230.162109 0.261025
1230.004883 0.249682
1229.075195 0.249592
1228.914063 0.253826
1227.987305 0.257133
1227.823242 0.258389
1226.899414 0.265934
1226.731445 0.244047
1225.811523 0.251136
1225.639648 0.238950
1224.723633 0.257408
1224.547852 0.243933
1223.634766 0.252726
1223.456055 0.240098
1222.546875 0.243413
1222.363281 0.259766
1221.458008 0.255577
1221.270508 0.248377
1220.368164 0.247530
1220.177734 0.236574
1219.279297 0.243695
1219.084961 0.255390
1218.189453 0.248698
1217.991211 0.250718
1217.100586 0.268425
1216.897461 0.262396
1216.010742 0.254492
1215.803711 0.263173
1214.919922 0.265378
1214.708984 0.245515
1213.830078 0.277101
1213.614258 0.257186
1212.739258 0.281253
1212.519531 0.262150
1211.648438 0.287083
1211.424805 0.275905
1210.557617 0.279884
1210.329102 0.283375
1209.466797 0.286553
1209.234375 0.291678
1208.375977 0.284398
1208.138672 0.296211
1207.284180 0.286863
1207.041992 0.284848
1206.192383 0.287648
1205.946289 0.281854
1205.100586 0.283815
1204.849609 0.298929
1204.007813 0.295094
1203.752930 0.288409
1202.916016 0.284545
1202.655273 0.274969
1201.823242 0.288686
1201.558594 0.282842
1200.730469 0.288211
1200.460938 0.269410
1199.637695 0.285219
1199.362305 0.276445
1198.543945 0.297745
1198.264648 0.283895
1197.451172 0.293914
1197.166016 0.292176
1196.357422 0.288827
1196.067383 0.290855
1195.263672 0.310985
1194.968750 0.314984
1194.168945 0.316791
1193.870117 0.300728
1193.075195 0.303742
1192.770508 0.311916
1191.980469 0.310385
1191.670898 0.328101
1190.885742 0.321214
1190.570313 0.325523
1189.791016 0.320733
1189.470703 0.302110
1188.696289 0.331137
1188.370117 0.303289
1187.600586 0.312238
1187.269531 0.302384
1186.504883 0.288743
1186.167969 0.278993
1185.409180 0.290360
1185.067383 0.293082
1184.313477 0.282356
1183.965820 0.265542
1183.216797 0.279792
1182.864258 0.265063
1182.121094 0.263848
1181.761719 0.260424
1181.024414 0.253763
1180.659180 0.253708
1179.927734 0.254550
1179.556641 0.244084
1178.830078 0.250739
1178.454102 0.244026
1177.733398 0.242334
1177.351563 0.241474
1176.635742 0.253148
1176.248047 0.241832
1175.538086 0.226369
1175.144531 0.231804
1174.440430 0.253049
1174.040039 0.237148
1173.341797 0.235465
1172.936523 0.225050
1172.243164 0.229993
1171.832031 0.226242
1171.145508 0.227861
1170.727539 0.218303
1170.045898 0.236161
1169.622070 0.214101
1168.947266 0.227772
1168.517578 0.217369
1167.848633 0.229812
1167.412109 0.225197
1166.749023 0.225597
1166.306641 0.228460
1165.649414 0.226804
1165.200195 0.220529
1164.549805 0.213421
1164.093750 0.216747
1163.449219 0.220463
1162.987305 0.208408
1162.348633 0.223754
1161.880859 0.213329
1161.249023 0.233708
1160.773438 0.220318
1160.147461 0.215335
1159.666016 0.222750
1159.046875 0.223205
1158.558594 0.207381
1157.946289 0.231488
1157.451172 0.228851
1156.844727 0.229777
1156.342773 0.210178
1155.743164 0.220160
1155.234375 0.216332
1154.641602 0.222613
1154.125977 0.223310
1153.539063 0.228809
1153.017578 0.223256
1152.436523 0.212543
1151.908203 0.230229
1151.334961 0.219570
1150.798828 0.213231
1150.231445 0.225763
1149.689453 0.234250
1149.128906 0.230291
1148.579102 0.222215
1148.026367 0.226090
1147.468750 0.218032
1146.922852 0.233524
1146.358398 0.230778
1145.819336 0.220599
1145.248047 0.223293
1144.715820 0.223878
1144.136719 0.208384
1143.611328 0.229233
1143.025391 0.233086
1142.506836 0.215070
1141.914063 0.220244
1141.403320 0.222915
1140.801758 0.231737
1140.297852 0.223286
1139.689453 0.228795
1139.193359 0.214942
1138.577148 0.227915
1138.088867 0.224026
1137.464844 0.227860
1136.983398 0.228544
1136.351563 0.217919
1135.877930 0.226425
1135.239258 0.226514
1134.771484 0.225551
1134.125000 0.213284
1133.666016 0.223848
1133.011719 0.224758
1132.559570 0.218416
1131.897461 0.220588
1131.453125 0.222101
1130.783203 0.211483
1130.346680 0.225371
1129.668945 0.214722
1129.240234 0.208758
1128.553711 0.220428
1128.132813 0.226109
1127.439453 0.229008
1127.025391 0.232689
1126.324219 0.218265
1125.917969 0.226847
1125.208008 0.221911
1124.810547 0.222663
1124.092773 0.232128
1123.702148 0.231721
1122.976563 0.223446
1122.594727 0.226297
1121.859375 0.222980
1121.486328 0.237006
1120.743164 0.218410
1120.377930 0.223725
1119.625977 0.235596
1119.268555 0.234843
1118.508789 0.223228
1118.159180 0.237690
1117.391602 0.229737
1117.050781 0.239295
1116.273438 0.226810
1115.940430 0.231809
1115.155273 0.241926
1114.831055 0.215238
1114.037109 0.229979
1113.721680 0.221803
1112.918945 0.209020
1112.611328 0.231257
1111.799805 0.222491
1111.500977 0.216347
1110.680664 0.226123
1110.389648 0.221669
1109.561523 0.220744
1109.279297 0.212545
1108.441406 0.209225
1108.167969 0.212915
1107.321289 0.216951
1107.056641 0.206271
1106.201172 0.206667
1105.945313 0.213654
1105.081055 0.209889
1104.833984 0.223095
1103.959961 0.203702
1103.721680 0.206971
1102.838867 0.195473
1102.609375 0.206517
1101.717773 0.206873
1101.497070 0.195760
1100.595703 0.206413
1100.384766 0.201077
1099.473633 0.199007
1099.271484 0.200212
1098.351563 0.208763
1098.158203 0.195229
1097.229492 0.205035
1097.044922 0.205896
1096.106445 0.197226
1095.931641 0.208736
1094.983398 0.200444
1094.818359 0.206224
1093.860352 0.196313
1093.704102 0.203713
1092.737305 0.198713
1092.589844 0.209021
1091.613281 0.207638
1091.475586 0.199105
1090.489258 0.194536
1090.360352 0.201944
1089.364258 0.196119
1089.246094 0.194912
1088.240234 0.198516
1088.130859 0.203917
1087.115234 0.196022
1087.015625 0.195244
1085.989258 0.204936
1085.900391 0.198903
1084.864258 0.201220
1084.784180 0.195986
1083.738281 0.192618
1083.667969 0.184855
1082.612305 0.195420
1082.551758 0.189746
1081.486328 0.195372
1081.435547 0.188886
1080.359375 0.189626
1080.318359 0.196647
1079.232422 0.187545
1079.202148 0.209742
1078.105469 0.197666
1078.084961 0.201902
1076.977539 0.195990
1076.966797 0.200630
1075.849609 0.197974
1075.849609 0.188693
1074.731445 0.199144
1074.721680 0.196037
1073.613281 0.195844
1073.593750 0.201327
1072.495117 0.197826
1072.464844 0.193907
1071.376953 0.204933
1071.335938 0.216458
1070.257813 0.195466
1070.207031 0.200163
1069.138672 0.198704
1069.077148 0.195243
1068.019531 0.195796
1067.948242 0.195600
1066.900391 0.198622
1066.817383 0.218676
1065.781250 0.199810
1065.687500 0.194285
1064.661133 0.201406
1064.556641 0.206807
1063.541016 0.191133
1063.425781 0.205944
1062.419922 0.209098
1062.294922 0.201839
1061.299805 0.196373
1061.163086 0.198952
1060.178711 0.197969
1060.032227 0.197687
1059.057617 0.205698
1058.899414 0.185893
1057.936523 0.201567
1057.767578 0.199612
1056.815430 0.197438
1056.634766 0.201181
1055.693359 0.194536
1055.501953 0.199107
1054.571289 0.204711
1054.369141 0.193393
1053.449219 0.207529
1053.235352 0.198198
1052.327148 0.202176
1052.101563 0.198957
1051.204102 0.208260
1050.967773 0.199311
1050.081055 0.205359
1049.833984 0.206131
1048.958008 0.210623
1048.699219 0.193149
1047.834961 0.215885
1047.564453 0.204815
1046.710938 0.201968
1046.428711 0.196282
1045.586914 0.215388
1045.293945 0.209153
1044.462891 0.214935
1044.158203 0.219596
1043.338867 0.203881
1043.021484 0.201380
1042.213867 0.205470
1041.885742 0.202135
1041.089844 0.203797
1040.749023 0.212168
1039.964844 0.217610
1039.612305 0.208082
1038.838867 0.210638
1038.474609 0.207626
1037.713867 0.216705
1037.337891 0.203543
1036.587891 0.222769
1036.200195 0.214370
1035.461914 0.219058
1035.061523 0.222373
1034.335938 0.225526
1033.923828 0.217483
1033.209961 0.220188
1032.785156 0.219038
1032.083008 0.227060
1031.646484 0.218983
1030.956055 0.222131
1030.506836 0.222951
1029.829102 0.214356
1029.367188 0.205996
1028.701172 0.217565
1028.227539 0.207553
1027.574219 0.226058
1027.087891 0.217553
1026.446289 0.213003
1025.947266 0.227548
1025.318359 0.226777
1024.806641 0.223872
1024.189453 0.238513
1023.666016 0.228637
1023.061523 0.210433
1022.524414 0.230989
1021.932617 0.220949
1021.382813 0.217274
1020.803711 0.213999
1020.241211 0.219628
1019.674805 0.211519
1019.098633 0.216762
1018.544922 0.210257
1017.957031 0.207877
1017.415039 0.211836
1016.813477 0.212237
1016.285156 0.212198
1015.670898 0.198946
1015.155273 0.217833
1014.527344 0.206113
1014.024414 0.208054
1013.383789 0.216483
1012.894531 0.218958
1012.240234 0.204804
1011.763672 0.220939
1011.095703 0.215570
1010.631836 0.212381
1009.951172 0.206702
1009.500977 0.222468
1008.806641 0.216260
1008.369141 0.219180
1007.662109 0.215003
1007.237305 0.231691
1006.516602 0.228156
1006.105469 0.230427
1005.371094 0.208489
1004.972656 0.221471
1004.224609 0.228838
1003.840820 0.229926
1003.079102 0.226379
1002.708008 0.233925
1001.932617 0.225921
1001.575195 0.226592
1000.785156 0.232658
1000.441406 0.227354
999.638672 0.237394
999.307617 0.235395
998.491211 0.237332
998.173828 0.245455
997.342773 0.239667
997.040039 0.240552
996.195313 0.219238
995.906250 0.246160
995.046875 0.220379
994.771484 0.237218
993.898438 0.228304
993.636719 0.235148
992.749023 0.222658
992.501953 0.230655
991.599609 0.227786
991.367188 0.237876
990.450195 0.218155
990.231445 0.209157
989.300781 0.215307
989.095703 0.216784
987.959961 0.211895
986.824219 0.205797
985.687500 0.216646
984.550781 0.212971
983.414063 0.214942
982.277344 0.210058
981.139648 0.222913
980.001953 0.211985
978.864258 0.222416
977.726563 0.224383
976.587891 0.225947
975.449219 0.233147
974.310547 0.225851
973.171875 0.220168
972.032227 0.219719
970.893555 0.219270
969.752930 0.235314
968.613281 0.232047
967.473633 0.233606
966.333008 0.250038
965.192383 0.244760
964.050781 0.242699
962.910156 0.239835
961.768555 0.232956
960.626953 0.245355
959.485352 0.245303
958.342773 0.239631
957.200195 0.221120
956.057617 0.226289
954.915039 0.223433
953.771484 0.210552
952.628906 0.224541
951.485352 0.218480
950.340820 0.202401
949.197266 0.216784
948.052734 0.214734
946.908203 0.204274
945.762695 0.212240
944.618164 0.210193
943.472656 0.213350
942.327148 0.216506
941.181641 0.207257
940.035156 0.213613
938.888672 0.210368
937.742188 0.213922
936.595703 0.212277
935.448242 0.210633
934.301758 0.217780
933.154297 0.217334
932.005859 0.217288
930.858398 0.216442
929.709961 0.221187
928.561523 0.223136
927.413086 0.245835
926.263672 0.239000
925.114258 0.242539
923.964844 0.239296
922.815430 0.243232
921.665039 0.238795
920.514648 0.237548
919.364258 0.235504
918.213867 0.235055
917.062500 0.231818
915.911133 0.231768
914.759766 0.246051
913.608398 0.242814
912.456055 0.246343
911.303711 0.229579
910.151367 0.235894
908.999023 0.246184
907.845703 0.251698
906.692383 0.244090
905.539063 0.262321
904.385742 0.255906
903.231445 0.251878
902.077148 0.255001
900.922852 0.268448
899.768555 0.255288
898.613281 0.261584
897.458008 0.275020
896.302734 0.261471
895.146484 0.281645
893.991211 0.284360
892.834961 0.286281
891.678711 0.303662
890.521484 0.313108
889.364258 0.315022
888.207031 0.331196
887.049805 0.345384
885.892578 0.377780
884.734375 0.391951
883.576172 0.391866
882.417969 0.394156
881.258789 0.387344
880.099609 0.380140
878.940430 0.360283
877.781250 0.348343
876.621094 0.352220
875.461914 0.322107
874.301758 0.307812
873.140625 0.290758
871.980469 0.280425
870.819336 0.261410
869.658203 0.263327
868.496094 0.259718
867.334961 0.258872
866.172852 0.249347
865.010742 0.239825
863.847656 0.244111
862.685547 0.243269
861.522461 0.241639
860.359375 0.237646
859.195313 0.240746
858.031250 0.241875
856.867188 0.237884
855.703125 0.240588
854.539063 0.241717
853.374023 0.234973
852.208984 0.236102
851.043945 0.248246
849.877930 0.255665
848.711914 0.246172
847.545898 0.253981
846.379883 0.251567
845.212891 0.258586
844.046875 0.273066
842.879883 0.269471
841.711914 0.291798
840.544922 0.312151
839.376953 0.310905
838.208008 0.333993
837.040039 0.376689
835.871094 0.407206
834.702148 0.462419
833.533203 0.532508
832.364258 0.668037
831.194336 0.763527
830.024414 0.908351
828.854492 0.959866
827.683594 1.000000
826.513672 0.989207
825.342773 0.929477
824.170898 0.829065
823.000000 0.778790
821.828125 0.663586
820.656250 0.599287
819.483398 0.549877
818.311523 0.489541
817.138672 0.448386
815.965820 0.397870
814.791992 0.375900
813.619141 0.346908
812.445313 0.342926
811.270508 0.333478
810.096680 0.334186
808.921875 0.322402
807.747070 0.309063
806.572266 0.289098
805.396484 0.289424
804.221680 0.279221
803.045898 0.280329
801.869141 0.262726
800.693359 0.266565
799.516602 0.276636
798.339844 0.280470
797.162109 0.273008
795.985352 0.273727
794.807617 0.267827
793.628906 0.272827
792.451172 0.266152
791.272461 0.275819
790.093750 0.285870
788.915039 0.283862
787.735352 0.285743
786.556641 0.294619
785.375977 0.298828
784.196289 0.294877
783.015625 0.288208
781.835938 0.271058
780.654297 0.269833
779.473633 0.253470
778.291992 0.252638
777.110352 0.252969
775.928711 0.252913
774.747070 0.255572
773.564453 0.240005
772.381836 0.249643
771.199219 0.243774
770.015625 0.255732
768.832031 0.235143
767.648438 0.258716
766.464844 0.259820
765.280273 0.262472
764.095703 0.274799
762.911133 0.290603
761.725586 0.302918
760.541016 0.316001
759.355469 0.344933
758.168945 0.347948
756.983398 0.383817
755.796875 0.395711
754.610352 0.385191
753.422852 0.361929
752.236328 0.354897
751.048828 0.340533
749.861328 0.321156
748.672852 0.330347
747.485352 0.320627
746.296875 0.291624
745.107422 0.297729
743.918945 0.291494
742.729492 0.267143
741.540039 0.267854
740.349609 0.261629
739.160156 0.265807
737.969727 0.264978
736.779297 0.256062
735.587891 0.255235
734.397461 0.248634
733.206055 0.252811
732.013672 0.247369
730.822266 0.246928
729.629883 0.244950
728.437500 0.248355
727.244141 0.251375
726.051758 0.240558
724.858398 0.237815
723.665039 0.247364
722.470703 0.250381
721.276367 0.251476
720.082031 0.242591
718.887695 0.253665
717.693359 0.245935
716.498047 0.247797
715.302734 0.247742
714.106445 0.250370
712.911133 0.246097
711.714844 0.245658
710.517578 0.255948
709.321289 0.251676
708.124023 0.260045
706.926758 0.263050
705.729492 0.275240
704.531250 0.261400
703.333008 0.267463
702.134766 0.268551
700.936523 0.269637
699.737305 0.268429
698.538086 0.284807
697.338867 0.278627
696.138672 0.273979
694.938477 0.293019
693.738281 0.292570
692.538086 0.298996
691.336914 0.301601
690.135742 0.307639
688.934570 0.312530
687.732422 0.312841
686.531250 0.312770
685.328125 0.317657
684.125977 0.315678
682.923828 0.325898
681.720703 0.333065
680.516602 0.318131
679.313477 0.329105
678.109375 0.325984
676.905273 0.350277
675.701172 0.355146
674.496094 0.355826
673.291992 0.372106
672.085938 0.367076
670.880859 0.364330
669.674805 0.364628
668.468750 0.366826
667.262695 0.353061
666.055664 0.343861
664.849609 0.345682
663.642578 0.332311
662.434570 0.328439
661.227539 0.320012
660.019531 0.307415
658.810547 0.307724
657.602539 0.308413
656.393555 0.305688
655.184570 0.314718
653.975586 0.310856
652.765625 0.313817
651.555664 0.293283
650.345703 0.287534
649.134766 0.295422
647.924805 0.289296
646.712891 0.280901
645.501953 0.285379
644.291016 0.293638
643.079102 0.282222
641.866211 0.285940
640.654297 0.275286
639.441406 0.294882
638.228516 0.291035
637.015625 0.285678
635.801758 0.281835
634.587891 0.279126
633.374023 0.279062
632.160156 0.284284
630.945313 0.282331
629.730469 0.283776
628.514648 0.292011
627.299805 0.281005
626.083984 0.297156
624.868164 0.285023
623.651367 0.291743
622.435547 0.301850
621.218750 0.298390
620.000977 0.289658
618.784180 0.295240
617.566406 0.290278
616.347656 0.307903
615.129883 0.308208
613.911133 0.284811
612.692383 0.299791
611.473633 0.277910
610.253906 0.284614
609.034180 0.294321
607.814453 0.285986
606.594727 0.283666
605.374023 0.284351
604.153320 0.286539
602.931641 0.288350
601.710938 0.271392
600.489258 0.269078
599.267578 0.275394
598.044922 0.273455
596.822266 0.256891
595.599609 0.259081
594.376953 0.256772
593.153320 0.262709
591.929688 0.249534
590.706055 0.248727
589.481445 0.244176
588.257813 0.248987
587.032227 0.255293
585.807617 0.248123
584.582031 0.246195
583.356445 0.239404
582.130859 0.243837
580.905273 0.242658
579.678711 0.254564
578.452148 0.252636
577.224609 0.238380
575.997070 0.254387
574.769531 0.245365
573.541992 0.251282
572.313477 0.243011
571.084961 0.242581
569.856445 0.236555
568.627930 0.250302
567.398438 0.257703
566.168945 0.243101
564.939453 0.240808
563.708984 0.249324
562.478516 0.244050
561.248047 0.248463
560.016602 0.253991
558.785156 0.239039
557.553711 0.250150
556.322266 0.250836
555.089844 0.246685
553.857422 0.241792
552.625000 0.250289
551.391602 0.248371
550.158203 0.247570
548.924805 0.243052
547.690430 0.247826
546.457031 0.256683
545.222656 0.242139
543.987305 0.251736
542.752930 0.253905
541.517578 0.232320
540.281250 0.247478
539.045898 0.243711
537.809570 0.242170
536.573242 0.253607
535.335938 0.247617
534.099609 0.245335
532.861328 0.246760
531.624023 0.236330
530.385742 0.241089
529.148438 0.252140
527.909180 0.243937
526.670898 0.268675
525.431641 0.251592
524.192383 0.245245
522.952148 0.257391
521.712891 0.257331
520.472656 0.260227
519.231445 0.264601
517.991211 0.264169
516.750000 0.258197
515.508789 0.262198
514.266602 0.253644
513.024414 0.265766
511.782227 0.268286
510.540039 0.280029
509.296875 0.264102
508.053711 0.283585
506.810547 0.269139
505.566406 0.279396
504.322266 0.278225
503.078125 0.269685
501.833008 0.280303
500.587891 0.287234
499.342773 0.278698
498.097656 0.280104
496.851563 0.291078
495.605469 0.290273
494.359375 0.287997
493.112305 0.288665
491.865234 0.295581
490.618164 0.300290
489.370117 0.324471
488.123047 0.311903
486.874023 0.315135
485.625977 0.311755
484.376953 0.332240
483.127930 0.330326
481.878906 0.335384
480.628906 0.336772
479.378906 0.355764
478.128906 0.345412
476.877930 0.366592
475.626953 0.339017
474.375977 0.351761
473.125000 0.386479
471.873047 0.388218
470.621094 0.405701
469.368164 0.408899
468.115234 0.424905
466.862305 0.442732
465.609375 0.476646
464.355469 0.498476
463.102539 0.548083
461.847656 0.605708
460.593750 0.683406
459.338867 0.751567
458.083984 0.797047
456.828125 0.918102
455.572266 0.926279
454.316406 0.915472
453.060547 0.879489
451.803711 0.820539
450.546875 0.744107
449.290039 0.677924
448.032227 0.608855
446.774414 0.545651
445.516602 0.500698
444.257813 0.478718
442.999023 0.461848
441.740234 0.461738
440.481445 0.425585
439.221680 0.428030
437.961914 0.414828
436.701172 0.409635
435.441406 0.412082
434.180664 0.422528
432.918945 0.430787
431.658203 0.427776
430.396484 0.436030
429.133789 0.440648
427.872070 0.431825
426.609375 0.423370
425.346680 0.416733
424.083008 0.408648
422.819336 0.408187
421.555664 0.408088
420.291016 0.402912
419.027344 0.418043
417.762695 0.418667
416.497070 0.436685
415.231445 0.429696
413.965820 0.434301
412.700195 0.436368
411.433594 0.459795
410.166992 0.465475
408.900391 0.474409
407.632813 0.483700
406.365234 0.479242
405.097656 0.493229
403.830078 0.493470
402.561523 0.509253
401.291992 0.499735
400.023438 0.541157
398.753906 0.536331
397.484375 0.565086
396.214844 0.573251
394.944336 0.578525
393.673828 0.585601
392.402344 0.595198
391.130859 0.593249
389.859375 0.622670
388.587891 0.612064
387.315430 0.630294
386.042969 0.628339
384.770508 0.657722
383.497070 0.638835
382.223633 0.652720
380.950195 0.642122
379.676758 0.652041
378.402344 0.648643
377.126953 0.642730
375.852539 0.637178
374.577148 0.632708
373.301758 0.640460
372.025391 0.620900
370.749023 0.644816
369.472656 0.632806
368.196289 0.629778
366.918945 0.640393
365.641602 0.595734
364.363281 0.611733
363.085938 0.611224
361.807617 0.606771
360.528320 0.600526
359.249023 0.596794
357.969727 0.579088
356.690430 0.591484
355.410156 0.549433
354.129883 0.545358
352.849609 0.534484
351.568359 0.543300
350.287109 0.529926
349.005859 0.525860
347.723633 0.514643
346.441406 0.527030
345.159180 0.507597
343.875977 0.492819
342.592773 0.501272
341.309570 0.503648
340.026367 0.476740
338.742188 0.462698
337.457031 0.470079
336.172852 0.452477
334.887695 0.446657
333.602539 0.440126
332.316406 0.438233
331.030273 0.429569
329.744141 0.423403
328.457031 0.430780
327.170898 0.429248
325.882813 0.403143
324.595703 0.414080
323.307617 0.410062
322.019531 0.414942
320.730469 0.404876
319.441406 0.418647
318.152344 0.411786
316.863281 0.408128
315.573242 0.413002
314.283203 0.417874
312.992188 0.415282
311.701172 0.410917
310.410156 0.426792
309.119141 0.415681
307.827148 0.439354
306.535156 0.431793
305.242188 0.442326
303.950195 0.458528
302.656250 0.458413
301.363281 0.467159
300.069336 0.483696
298.775391 0.491014
297.480469 0.508599
296.186523 0.522281
294.891602 0.532415
293.595703 0.549269
292.299805 0.549131
291.003906 0.599576
289.708008 0.620997
288.411133 0.642407
287.114258 0.654616
285.816406 0.679187
284.518555 0.712931
283.220703 0.738887
281.922852 0.765183
280.624023 0.741337
279.325195 0.751737
278.025391 0.769895
276.725586 0.743596
275.425781 0.763509
274.125977 0.773540
272.825195 0.781803
271.523438 0.815082
270.222656 0.850457
268.920898 0.909061
267.619141 0.898618
266.316406 0.959643
265.013672 1.002688
263.710938 1.041488
262.408203 1.073585
261.104492 1.087027
259.799805 1.153902
258.496094 1.192975
257.191406 1.239056
255.886719 1.297761
254.581055 1.324825
253.275391 1.365569
251.969727 1.418579
250.663086 1.454013
249.356445 1.469781
248.049805 1.530790
246.742188 1.538814
245.434570 1.565766
244.126953 1.570271
242.818359 1.597902
241.509766 1.620613
240.201172 1.591477
238.891602 1.615578
237.582031 1.550402
236.271484 1.509757
234.961914 1.485926
233.650391 1.449515
232.339844 1.403331
231.028320 1.393530
229.716797 1.372199
228.405273 1.334456
227.092773 1.319090
225.779297 1.298493
224.466797 1.271272
223.153320 1.235688
221.839844 1.229086
220.525391 1.236444
219.210938 1.201593
217.896484 1.181056
216.581055 1.163319
215.265625 1.157441
213.950195 1.143551
212.633789 1.116432
211.317383 1.118231
210.000977 1.090784
208.683594 1.096417
207.366211 1.071077
206.048828 1.063840
204.730469 1.027044
203.412109 1.042771
202.092773 1.034503
200.773438 1.010254
199.454102 1.008600
198.133789 1.015631
196.814453 1.005642
195.493164 1.003643
194.172852 1.011363
192.851563 1.040591
191.529297 1.002508
190.208008 1.032069
188.885742 1.024517
187.562500 1.040193
186.239258 1.064176
184.916016 1.064936
183.592773 1.075046
182.268555 1.106618
180.944336 1.118788
179.619141 1.111572
178.293945 1.153142
176.968750 1.162523
175.643555 1.176393
174.317383 1.202702
172.990234 1.216554
171.664063 1.217615
170.336914 1.224546
169.008789 1.242525
167.680664 1.238743
166.352539 1.279834
165.024414 1.312275
163.695313 1.341940
162.366211 1.401248
161.036133 1.430182
159.706055 1.499431
158.375977 1.549000
157.044922 1.608878
155.713867 1.703854
154.382813 1.735423
153.050781 1.791759
151.718750 1.898311
150.385742 1.932554
149.053711 1.966434
147.719727 1.997544
146.386719 2.045139
145.052734 2.076555
143.717773 2.067409
142.383789 2.107732
141.048828 2.125711
139.712891 2.118618
138.377930 2.101574
137.041016 2.122627
135.705078 2.126860
134.368164 2.094051
133.031250 2.112001
131.693359 2.112461
130.355469 2.127998
129.017578 2.090768
127.678711 2.094999
126.339844 2.080395
125.000977 2.091472
123.661133 2.111782
122.321289 2.116685
120.980469 2.056941
119.639648 2.079294
118.298828 2.071210
116.957031 2.113709
115.615234 2.141152
114.273438 2.149109
112.930664 2.185746
111.587891 2.240796
110.244141 2.224829
108.900391 2.209212
107.556641 2.176888
106.211914 2.100251
104.867188 2.017177
103.522461 1.883367
102.176758 1.722030
100.831055 1.565209
99.484375 1.384636
98.137695 1.184074
