3198.529297 0.009963
3197.824219 0.006641
3197.119141 0.006640
3196.414063 0.013278
3195.708008 0.006638
3195.001953 0.006637
3194.296875 0.009954
3193.590820 0.006635
3192.884766 0.006634
3192.178711 0.006633
3191.472656 0.005526
3190.765625 0.017682
3190.059570 0.006630
3189.352539 0.011048
3188.646484 0.006628
3187.939453 0.006627
3187.232422 0.013251
3186.525391 0.009937
3185.818359 0.003312
3185.111328 0.005519
3184.404297 0.013243
3183.696289 0.009930
3182.989258 0.012135
3182.281250 0.006618
3181.573242 0.012131
3180.865234 0.004411
3180.157227 0.012128
3179.449219 0.006614
3178.741211 0.006613
3178.033203 0.006612
3177.324219 0.006611
3176.616211 0.005508
3175.907227 0.016522
3175.198242 0.006608
3174.489258 0.006607
3173.780273 0.008807
3173.071289 0.004403
3172.362305 0.006603
3171.652344 0.006602
3170.943359 0.011002
3170.233398 0.015401
3169.523438 0.008799
3168.814453 0.006598
3168.104492 0.012095
3167.394531 0.009894
3166.683594 0.009892
3165.973633 0.006594
3165.263672 0.014284
3164.552734 0.006592
3163.841797 0.006591
3163.130859 0.006590
3162.420898 0.006589
3161.709961 0.006587
3160.998047 0.006586
3160.287109 0.013171
3159.576172 0.009876
3158.864258 0.006583
3158.153320 0.006582
3157.441406 0.013162
3156.729492 0.009870
3156.017578 0.012061
3155.305664 0.009867
3154.593750 0.010961
3153.880859 0.013151
3153.168945 0.016436
3152.456055 0.005478
3151.744141 0.013145
3151.031250 0.012047
3150.318359 0.006570
3149.605469 0.005474
3148.892578 0.010947
3148.178711 0.010945
3147.465820 0.013132
3146.751953 0.006565
3146.039063 0.009846
3145.325195 0.012032
3144.611328 0.009842
3143.897461 0.013121
3143.183594 0.006559
3142.468750 0.009838
3141.754883 0.010929
3141.041016 0.012020
3140.326172 0.006555
3139.611328 0.006554
3138.896484 0.010921
3138.181641 0.006552
3137.466797 0.012010
3136.751953 0.008733
3136.037109 0.006549
3135.321289 0.006547
3134.605469 0.010911
3133.890625 0.013090
3133.174805 0.010907
3132.458984 0.010905
3131.743164 0.018536
3131.027344 0.010901
3130.310547 0.009810
3129.594727 0.011988
3128.877930 0.013075
3128.161133 0.010894
3127.445313 0.013071
3126.728516 0.017425
3126.010742 0.010889
3125.293945 0.005443
3124.577148 0.013062
3123.859375 0.014148
3123.142578 0.016322
3122.424805 0.011967
3121.707031 0.018492
3120.989258 0.006525
3120.271484 0.006524
3119.553711 0.014134
3118.835938 0.014131
3118.117188 0.011955
3117.399414 0.013040
3116.680664 0.006519
3115.961914 0.011949
3115.243164 0.011947
3114.524414 0.011945
3113.805664 0.009772
3113.086914 0.013026
3112.367188 0.011939
3111.648438 0.005426
3110.928711 0.016275
3110.208984 0.014102
3109.489258 0.006508
3108.769531 0.009760
3108.049805 0.010842
3107.329102 0.018429
3106.609375 0.010839
3105.888672 0.014088
3105.168945 0.016252
3104.448242 0.017333
3103.727539 0.010831
3103.006836 0.012995
3102.285156 0.011910
3101.564453 0.015156
3100.843750 0.012989
3100.122070 0.009740
3099.400391 0.011902
3098.678711 0.006491
3097.957031 0.004327
3097.235352 0.006489
3096.513672 0.015138
3095.791992 0.011892
3095.069336 0.003243
3094.346680 0.006484
3093.625000 0.010805
3092.902344 0.006482
3092.179688 0.014042
3091.457031 0.011879
3090.733398 0.009718
3090.010742 0.012955
3089.287109 0.009714
3088.564453 0.011871
3087.840820 0.009711
3087.117188 0.006473
3086.393555 0.012944
3085.669922 0.006471
3084.946289 0.015096
3084.221680 0.014015
3083.498047 0.018324
3082.773438 0.005388
3082.048828 0.016163
3081.324219 0.011850
3080.599609 0.014003
3079.875000 0.011846
3079.149414 0.012921
3078.424805 0.013995
3077.699219 0.015069
3076.974609 0.006457
3076.249023 0.008608
3075.523438 0.013985
3074.797852 0.010756
3074.071289 0.009679
3073.345703 0.018279
3072.619141 0.011825
3071.893555 0.016123
3071.166992 0.011821
3070.440430 0.012894
3069.713867 0.009669
3068.987305 0.015037
3068.259766 0.012887
3067.533203 0.015032
3066.805664 0.013956
3066.079102 0.010733
3065.351563 0.011805
3064.624023 0.010730
3063.896484 0.010728
3063.168945 0.009653
3062.440430 0.013941
3061.712891 0.010722
3060.984375 0.017152
3060.255859 0.012862
3059.527344 0.010716
3058.798828 0.011786
3058.070313 0.012855
3057.341797 0.011782
3056.613281 0.013921
3055.883789 0.014989
3055.154297 0.010705
3054.424805 0.013914
3053.695313 0.011771
3052.965820 0.006419
3052.236328 0.005349
3051.506836 0.009626
3050.776367 0.013901
3050.046875 0.012830
3049.316406 0.016034
3048.585938 0.013894
3047.855469 0.013891
3047.125000 0.016026
3046.393555 0.016023
3045.663086 0.009612
3044.931641 0.014949
3044.201172 0.009608
3043.469727 0.006404
3042.738281 0.016008
3042.006836 0.010670
3041.275391 0.005334
3040.542969 0.012800
3039.811523 0.006399
3039.079102 0.012795
3038.346680 0.018123
3037.614258 0.015988
3036.881836 0.015985
3036.149414 0.013851
3035.416992 0.017045
3034.683594 0.012781
3033.951172 0.014909
3033.217773 0.020230
3032.484375 0.011710
3031.750977 0.011708
3031.017578 0.021283
3030.284180 0.006384
3029.549805 0.015956
3028.816406 0.011699
3028.082031 0.018077
3027.347656 0.012758
3026.613281 0.015945
3025.878906 0.017005
3025.144531 0.015939
3024.410156 0.010624
3023.674805 0.016995
3022.939453 0.021240
3022.205078 0.023360
3021.469727 0.013801
3020.734375 0.014860
3019.999023 0.024409
3019.262695 0.018038
3018.527344 0.024400
3017.791016 0.015910
3017.054688 0.012726
3016.318359 0.022266
3015.582031 0.025442
3014.845703 0.025437
3014.109375 0.019075
3013.373047 0.016952
3012.635742 0.021186
3011.898438 0.016946
3011.161133 0.019061
3010.424805 0.025410
3009.686523 0.026463
3008.949219 0.022225
3008.211914 0.016930
3007.473633 0.021159
3006.736328 0.031733
3005.998047 0.020094
3005.259766 0.016918
3004.521484 0.023258
3003.782227 0.022197
3003.043945 0.021136
3002.305664 0.024302
3001.566406 0.027466
3000.827148 0.021124
3000.087891 0.023232
2999.348633 0.022172
2998.609375 0.027446
2997.870117 0.028496
2997.129883 0.024270
2996.389648 0.033761
2995.650391 0.023207
2994.910156 0.018984
2994.169922 0.017926
2993.429688 0.024248
2992.688477 0.027406
2991.948242 0.024239
2991.207031 0.030556
2990.465820 0.033711
2989.725586 0.028439
2988.983398 0.027380
2988.242188 0.030534
2987.500977 0.031581
2986.759766 0.031575
2986.017578 0.035778
2985.275391 0.028407
2984.533203 0.023142
2983.791016 0.034707
2983.048828 0.033649
2982.306641 0.039950
2981.563477 0.044148
2980.821289 0.035732
2980.078125 0.036776
2979.334961 0.040971
2978.591797 0.043064
2977.848633 0.036755
2977.105469 0.048298
2976.361328 0.039891
2975.618164 0.034636
2974.874023 0.049320
2974.129883 0.051410
2973.385742 0.047204
2972.641602 0.044049
2971.897461 0.049284
2971.152344 0.054516
2970.408203 0.052410
2969.663086 0.057640
2968.917969 0.056581
2968.172852 0.059714
2967.427734 0.060750
2966.682617 0.071211
2965.936523 0.060727
2965.191406 0.071184
2964.445313 0.080590
2963.699219 0.071157
2962.953125 0.091022
2962.207031 0.092051
2961.460938 0.073209
2960.713867 0.089926
2959.967773 0.092000
2959.220703 0.089892
2958.473633 0.109731
2957.726563 0.102396
2956.979492 0.098198
2956.232422 0.109669
2955.484375 0.097117
2954.737305 0.117980
2953.989258 0.102300
2953.241211 0.106456
2952.493164 0.111653
2951.745117 0.113718
2950.997070 0.117869
2950.248047 0.125147
2949.500000 0.116782
2948.750977 0.127185
2948.001953 0.118823
2947.252930 0.136516
2946.503906 0.116694
2945.754883 0.114589
2945.004883 0.130190
2944.255859 0.116628
2943.505859 0.118688
2942.755859 0.129075
2942.005859 0.118643
2941.255859 0.113418
2940.504883 0.119639
2939.754883 0.104014
2939.003906 0.119593
2938.252930 0.113332
2937.502930 0.101876
2936.750977 0.094581
2936.000000 0.094563
2935.249023 0.094545
2934.497070 0.104915
2933.746094 0.101779
2932.994141 0.077877
2932.242188 0.090321
2931.490234 0.077848
2930.738281 0.083022
2929.985352 0.081968
2929.233398 0.068467
2928.480469 0.091272
2927.727539 0.076737
2926.974609 0.071538
2926.221680 0.072561
2925.468750 0.072547
2924.715820 0.062172
2923.961914 0.062160
2923.208008 0.069399
2922.455078 0.066278
2921.701172 0.071443
2920.946289 0.069359
2920.192383 0.069346
2919.438477 0.057949
2918.683594 0.063111
2917.928711 0.054824
2917.173828 0.063087
2916.418945 0.064109
2915.664063 0.050657
2914.909180 0.055816
2914.153320 0.062006
2913.398438 0.058894
2912.642578 0.059916
2911.886719 0.059904
2911.130859 0.045436
2910.375000 0.046460
2909.619141 0.052644
2908.862305 0.045410
2908.105469 0.053656
2907.349609 0.049519
2906.592773 0.046415
2905.835938 0.052594
2905.078125 0.058770
2904.321289 0.058759
2903.563477 0.059778
2902.806641 0.049462
2902.048828 0.052543
2901.291016 0.063864
2900.533203 0.058702
2899.774414 0.055602
2899.016602 0.049415
2898.257813 0.062786
2897.500000 0.051454
2896.741211 0.048357
2895.982422 0.052463
2895.222656 0.058623
2894.463867 0.048329
2893.705078 0.059629
2892.945313 0.048311
2892.185547 0.053440
2891.425781 0.054457
2890.666016 0.057528
2889.906250 0.052382
2889.146484 0.052372
2888.385742 0.051335
2887.625000 0.057484
2886.864258 0.045157
2886.103516 0.047201
2885.342773 0.048217
2884.582031 0.049234
2883.821289 0.052301
2883.059570 0.046139
2882.297852 0.046130
2881.536133 0.044071
2880.774414 0.051236
2880.012695 0.049177
2879.250977 0.048143
2878.488281 0.053254
2877.726563 0.048124
2876.963867 0.051186
2876.201172 0.046058
2875.438477 0.041956
2874.674805 0.045017
2873.912109 0.059330
2873.149414 0.053182
2872.385742 0.036811
2871.622070 0.040893
2870.858398 0.051107
2870.094727 0.040877
2869.330078 0.045978
2868.566406 0.052098
2867.801758 0.039832
2867.038086 0.039824
2866.273438 0.033691
2865.508789 0.048996
2864.743164 0.046945
2863.978516 0.053058
2863.212891 0.044886
2862.448242 0.038758
2861.682617 0.049968
2860.916992 0.045880
2860.151367 0.051987
2859.384766 0.048919
2858.619141 0.037701
2857.852539 0.048900
2857.086914 0.040742
2856.320313 0.043789
2855.553711 0.043781
2854.786133 0.047844
2854.019531 0.045799
2853.251953 0.040702
2852.485352 0.052903
2851.717773 0.040687
2850.950195 0.038645
2850.182617 0.048805
2849.414063 0.044729
2848.646484 0.044720
2847.877930 0.044711
2847.110352 0.042671
2846.341797 0.046725
2845.573242 0.038592
2844.803711 0.045692
2844.035156 0.036546
2843.266602 0.046689
2842.497070 0.038561
2841.727539 0.046670
2840.958008 0.046661
2840.188477 0.043610
2839.418945 0.038531
2838.648438 0.037510
2837.878906 0.034462
2837.108398 0.039522
2836.337891 0.049646
2835.567383 0.037480
2834.795898 0.040511
2834.025391 0.041516
2833.254883 0.039483
2832.483398 0.043524
2831.711914 0.036432
2830.940430 0.035413
2830.168945 0.043498
2829.397461 0.038433
2828.625000 0.039436
2827.852539 0.043473
2827.081055 0.034367
2826.308594 0.039413
2825.536133 0.047489
2824.762695 0.040408
2823.990234 0.035350
2823.216797 0.043421
2822.444336 0.040384
2821.670898 0.035329
2820.897461 0.038350
2820.123047 0.040360
2819.349609 0.035308
2818.576172 0.036310
2817.801758 0.036302
2817.027344 0.046377
2816.252930 0.037296
2815.478516 0.039304
2814.704102 0.034259
2813.928711 0.035259
2813.154297 0.036259
2812.378906 0.033231
2811.603516 0.037252
2810.828125 0.050330
2810.052734 0.034218
2809.276367 0.036223
2808.500977 0.034204
2807.724609 0.039227
2806.948242 0.029163
2806.171875 0.038206
2805.395508 0.042219
2804.619141 0.034170
2803.841797 0.036173
2803.064453 0.022101
2802.288086 0.043190
2801.510742 0.043181
2800.733398 0.033132
2799.955078 0.038145
2799.177734 0.042152
2798.399414 0.035119
2797.621094 0.038122
2796.842773 0.040121
2796.064453 0.039110
2795.286133 0.033086
2794.507813 0.030072
2793.728516 0.036080
2792.950195 0.035071
2792.170898 0.037067
2791.391602 0.030049
2790.611328 0.040057
2789.832031 0.037045
2789.052734 0.037038
2788.272461 0.037030
2787.492188 0.035022
2786.711914 0.036015
2785.931641 0.034007
2785.151367 0.034001
2784.370117 0.031994
2783.588867 0.038985
2782.808594 0.024985
2782.027344 0.032974
2781.246094 0.030970
2780.463867 0.038954
2779.682617 0.038946
2778.900391 0.036942
2778.119141 0.035936
2777.336914 0.035929
2776.554688 0.047895
2775.771484 0.037910
2774.989258 0.034910
2774.206055 0.036897
2773.423828 0.036890
2772.640625 0.040870
2771.857422 0.043851
2771.074219 0.032882
2770.290039 0.036860
2769.506836 0.039841
2768.722656 0.033858
2767.938477 0.045799
2767.154297 0.030858
2766.370117 0.030852
2765.585938 0.031841
2764.800781 0.032829
2764.016602 0.040779
2763.231445 0.042760
2762.446289 0.041757
2761.661133 0.044731
2760.875000 0.034784
2760.089844 0.047694
2759.303711 0.035763
2758.518555 0.045688
2757.732422 0.035749
2756.945313 0.043684
2756.159180 0.037720
2755.373047 0.033742
2754.585938 0.034728
2753.798828 0.032737
2753.012695 0.036697
2752.224609 0.032723
2751.437500 0.041640
2750.650391 0.035684
2749.862305 0.034686
2749.074219 0.036660
2748.287109 0.040615
2747.499023 0.040607
2746.709961 0.044560
2745.921875 0.036631
2745.132813 0.033654
2744.344727 0.039585
2743.555664 0.039577
2742.766602 0.044515
2741.977539 0.038572
2741.187500 0.034608
2740.398438 0.038556
2739.608398 0.035583
2738.818359 0.035576
2738.028320 0.040508
2737.238281 0.038525
2736.448242 0.039504
2735.657227 0.035547
2734.866211 0.036527
2734.075195 0.040467
2733.284180 0.033551
2732.493164 0.035518
2731.702148 0.037483
2730.910156 0.036490
2730.119141 0.039440
2729.327148 0.041404
2728.535156 0.031539
2727.743164 0.036460
2726.950195 0.038423
2726.158203 0.037430
2725.365234 0.040377
2724.572266 0.036430
2723.779297 0.036423
2722.986328 0.032479
2722.193359 0.034440
2721.399414 0.037384
2720.606445 0.033442
2719.812500 0.037369
2719.018555 0.026546
2718.224609 0.035388
2717.430664 0.030467
2716.635742 0.025547
2715.840820 0.034384
2715.046875 0.033394
2714.251953 0.028478
2713.456055 0.033381
2712.661133 0.039263
2711.866211 0.040237
2711.070313 0.028454
2710.274414 0.028449
2709.478516 0.033347
2708.682617 0.044126
2707.886719 0.036274
2707.089844 0.046068
2706.293945 0.034299
2705.497070 0.038211
2704.700195 0.040163
2703.903320 0.032319
2703.105469 0.033292
2702.308594 0.040138
2701.510742 0.041108
2700.712891 0.040121
2699.915039 0.029351
2699.117188 0.034236
2698.319336 0.036185
2697.520508 0.034222
2696.722656 0.036170
2695.923828 0.034208
2695.125000 0.043972
2694.326172 0.041032
2693.526367 0.030279
2692.727539 0.041992
2691.927734 0.036125
2691.127930 0.032213
2690.328125 0.040014
2689.528320 0.042933
2688.728516 0.038046
2687.927734 0.041940
2687.126953 0.039006
2686.326172 0.026323
2685.525391 0.033141
2684.724609 0.040931
2683.923828 0.037999
2683.122070 0.034095
2682.321289 0.031166
2681.519531 0.040897
2680.717773 0.035047
2679.915039 0.036013
2679.113281 0.033086
2678.310547 0.042809
2677.508789 0.035018
2676.706055 0.031121
2675.903320 0.033059
2675.099609 0.035968
2674.296875 0.034989
2673.493164 0.036925
2672.690430 0.040803
2671.886719 0.039824
2671.083008 0.039815
2670.278320 0.035923
2669.474609 0.034945
2668.669922 0.036879
2667.865234 0.032020
2667.060547 0.032013
2666.255859 0.033946
2665.451172 0.037818
2664.646484 0.042658
2663.840820 0.030048
2663.035156 0.039733
2662.229492 0.035849
2661.423828 0.038747
2660.618164 0.037771
2659.811523 0.034858
2659.004883 0.035819
2658.199219 0.040651
2657.391602 0.039674
2656.584961 0.031926
2655.778320 0.035789
2655.033203 0.037798
2654.970703 0.037715
2654.227539 0.044582
2654.164063 0.045442
2653.421875 0.041668
2653.356445 0.045433
2652.616211 0.040693
2652.548828 0.038658
2651.810547 0.036811
2651.740234 0.034785
2651.004883 0.039711
2650.932617 0.037676
2650.198242 0.035831
2650.124023 0.044429
2649.392578 0.036793
2649.316406 0.039591
2648.585938 0.036787
2648.507813 0.044410
2647.779297 0.034845
2647.699219 0.034749
2646.972656 0.040646
2646.889648 0.032811
2646.166016 0.033867
2646.081055 0.040523
2645.359375 0.038698
2645.271484 0.045338
2644.552734 0.042561
2644.461914 0.035684
2643.745117 0.033850
2643.652344 0.040497
2642.938477 0.030944
2642.842773 0.033741
2642.130859 0.033839
2642.033203 0.039516
2641.323242 0.037700
2641.222656 0.038545
2640.515625 0.046393
2640.413086 0.031793
2639.708008 0.039620
2639.602539 0.038528
2638.899414 0.034783
2638.791992 0.039483
2638.091797 0.041540
2637.981445 0.039475
2637.283203 0.041533
2637.169922 0.040429
2636.475586 0.037663
2636.359375 0.034646
2635.666992 0.041519
2635.547852 0.037525
2634.858398 0.041512
2634.736328 0.042327
2634.049805 0.037644
2633.924805 0.041357
2633.241211 0.041499
2633.113281 0.035578
2632.431641 0.046316
2632.300781 0.038455
2631.623047 0.043414
2631.489258 0.040369
2630.813477 0.048230
2630.676758 0.047088
2630.003906 0.042436
2629.864258 0.041313
2629.194336 0.044357
2629.051758 0.038423
2628.384766 0.035673
2628.238281 0.040335
2627.575195 0.039523
2627.425781 0.047048
2626.765625 0.035661
2626.612305 0.045118
2625.955078 0.038546
2625.798828 0.044148
2625.145508 0.041430
2624.985352 0.039341
2624.334961 0.041423
2624.171875 0.046048
2623.524414 0.045269
2623.358398 0.041243
2622.713867 0.038520
2622.543945 0.043152
2621.903320 0.050068
2621.729492 0.044102
2621.092773 0.039470
2620.916016 0.048885
2620.281250 0.043313
2620.100586 0.045041
2619.469727 0.051005
2619.286133 0.038325
2618.659180 0.035601
2618.471680 0.040232
2617.847656 0.039444
2617.656250 0.042139
2617.036133 0.048094
2616.840820 0.037343
2616.224609 0.050971
2616.025391 0.041164
2615.412109 0.041347
2615.209961 0.046898
2614.600586 0.040378
2614.394531 0.039233
2613.788086 0.040372
2613.578125 0.037311
2612.976563 0.039404
2612.762695 0.037303
2612.164063 0.042280
2611.946289 0.043989
2611.351563 0.046116
2611.129883 0.042067
2610.539063 0.034581
2610.312500 0.027720
2609.726563 0.041298
2609.496094 0.037271
2608.913086 0.040331
2608.678711 0.044907
2608.100586 0.051845
2607.862305 0.043942
2607.287109 0.043197
2607.044922 0.037247
2606.473633 0.040310
2606.227539 0.037239
2605.660156 0.040304
2605.409180 0.047732
2604.846680 0.043175
2604.591797 0.038178
2604.033203 0.037412
2603.773438 0.042941
2603.218750 0.042201
2602.955078 0.044840
2602.405273 0.043153
2602.136719 0.044830
2601.590820 0.040269
2601.318359 0.039099
2600.776367 0.040262
2600.500000 0.036230
2599.961914 0.037380
2599.680664 0.038129
2599.147461 0.044082
2598.861328 0.035261
2598.333008 0.045991
2598.042969 0.045735
2597.518555 0.045025
2597.222656 0.051440
2596.703125 0.044059
2596.403320 0.048572
2595.888672 0.035433
2595.583984 0.028566
2595.073242 0.044044
2594.763672 0.039983
2594.257813 0.042122
2593.943359 0.039023
2593.442383 0.041158
2593.123047 0.038063
2592.625977 0.041151
2592.302734 0.043763
2591.810547 0.040187
2591.482422 0.046607
2590.994141 0.039223
2590.661133 0.038989
2590.178711 0.050694
2589.839844 0.043735
2589.362305 0.041122
2589.018555 0.050379
2588.545898 0.037291
2588.197266 0.049418
2587.729492 0.040152
2587.375977 0.042756
2586.913086 0.036322
2586.554688 0.050346
2586.095703 0.038227
2585.732422 0.047486
2585.279297 0.044909
2584.910156 0.040829
2584.461914 0.040124
2584.087891 0.045567
2583.644531 0.044893
2583.265625 0.044608
2582.827148 0.049661
2582.443359 0.039854
2582.009766 0.046787
2581.620117 0.041743
2581.192383 0.039142
2580.796875 0.046476
2580.374023 0.045817
2579.973633 0.042673
2579.556641 0.047717
2579.150391 0.044560
2578.738281 0.039122
2578.327148 0.042654
2577.919922 0.042931
2577.503906 0.040750
2577.101563 0.048646
2576.679688 0.039793
2576.283203 0.042916
2575.855469 0.042626
2575.464844 0.050537
2575.031250 0.048299
2574.645508 0.044808
2574.207031 0.036927
2573.827148 0.045753
2573.381836 0.039759
2573.007813 0.040027
2572.557617 0.040697
2572.188477 0.044784
2571.732422 0.036903
2571.369141 0.042871
2570.907227 0.041625
2570.549805 0.044769
2570.082031 0.036887
2569.730469 0.047618
2569.256836 0.037824
2568.910156 0.043801
2568.430664 0.047270
2568.090820 0.039033
2567.605469 0.046314
2567.270508 0.047593
2566.779297 0.044414
2566.450195 0.046633
2565.953125 0.049128
2565.629883 0.037109
2565.125977 0.038727
2564.809570 0.046616
2564.299805 0.045330
2563.989258 0.041852
2563.472656 0.041543
2563.167969 0.047551
2562.646484 0.041534
2562.346680 0.040887
2561.819336 0.034919
2561.526367 0.048485
2560.992188 0.047177
2560.705078 0.050377
2560.164063 0.042450
2559.883789 0.046567
2559.336914 0.042441
2559.061523 0.037057
2558.508789 0.037717
2558.240234 0.039901
2557.680664 0.044307
2557.417969 0.050342
2556.852539 0.047125
2556.596680 0.047484
2556.024414 0.048057
2555.774414 0.051273
2555.195313 0.048046
2554.952148 0.044619
2554.367188 0.039559
2554.129883 0.037967
2553.538086 0.041434
2553.307617 0.038909
2552.708984 0.045190
2552.484375 0.055981
2551.878906 0.040474
2551.662109 0.034152
2551.049805 0.048935
2550.838867 0.039837
2550.219727 0.050806
2550.015625 0.049313
2549.390625 0.044210
2549.192383 0.045512
2548.560547 0.052664
2548.369141 0.047400
2547.730469 0.042310
2547.544922 0.043600
2546.899414 0.041361
2546.721680 0.050226
2546.069336 0.052629
2545.897461 0.042637
2545.238281 0.039463
2545.074219 0.044524
2544.407227 0.049788
2544.250000 0.043569
2543.576172 0.042263
2543.425781 0.040720
2542.745117 0.054460
2542.600586 0.047340
2541.913086 0.043183
2541.776367 0.050172
2541.082031 0.045051
2540.951172 0.044484
2540.250000 0.047856
2540.126953 0.044476
2539.417969 0.045031
2539.301758 0.049199
2538.585938 0.045021
2538.476563 0.052028
2537.752930 0.049699
2537.651367 0.045398
2536.920898 0.057188
2536.826172 0.052009
2536.087891 0.044991
2536.000000 0.052945
2535.254883 0.047792
2535.174805 0.050100
2534.421875 0.053403
2534.348633 0.055762
2533.587891 0.044961
2533.522461 0.046302
2532.754883 0.046824
2532.696289 0.044404
2531.920898 0.046813
2531.870117 0.057621
2531.086914 0.050547
2531.042969 0.047222
2530.252930 0.043049
2530.216797 0.052879
2529.418945 0.049589
2529.389648 0.045316
2528.583984 0.043030
2528.562500 0.061355
2527.749023 0.042085
2527.735352 0.050019
2526.914063 0.050490
2526.908203 0.054728
2526.081055 0.055153
2526.079102 0.052831
2525.253906 0.048599
2525.244141 0.052821
2524.425781 0.048588
2524.409180 0.059413
2523.597656 0.047643
2523.573242 0.053745
2522.769531 0.056564
2522.737305 0.045764
2521.941406 0.051841
2521.901367 0.052290
2521.113281 0.053716
2521.065430 0.051345
2520.285156 0.041457
2520.228516 0.050400
2519.456055 0.053696
2519.392578 0.060653
2518.627930 0.045210
2518.555664 0.047579
2517.798828 0.052735
2517.718750 0.056895
2516.969727 0.056492
2516.881836 0.055950
2516.140625 0.053657
2516.043945 0.055005
2515.311523 0.061177
2515.207031 0.059653
2514.481445 0.057402
2514.369141 0.045661
2513.651367 0.050806
2513.531250 0.056831
2512.822266 0.057381
2512.693359 0.046572
2511.992188 0.059252
2511.855469 0.050287
2511.162109 0.061121
2511.016602 0.059585
2510.332031 0.062991
2510.177734 0.051195
2509.500977 0.058279
2509.338867 0.058628
2508.670898 0.059208
2508.500000 0.052102
2507.839844 0.057318
2507.661133 0.048369
2507.008789 0.057308
2506.821289 0.056728
2506.177734 0.060115
2505.982422 0.051137
2505.346680 0.047895
2505.142578 0.047407
2504.515625 0.049765
2504.302734 0.047396
2503.683594 0.049755
2503.461914 0.054818
2502.852539 0.061010
2502.622070 0.055735
2502.020508 0.060060
2501.781250 0.056651
2501.188477 0.056296
2500.940430 0.046425
2500.356445 0.060038
2500.099609 0.057553
2499.524414 0.052524
2499.258789 0.058468
2498.691406 0.060016
2498.416992 0.054744
2497.859375 0.060942
2497.576172 0.055659
2497.026367 0.062806
2496.734375 0.053791
2496.193359 0.050610
2495.892578 0.064906
2495.360352 0.057160
2495.050781 0.059329
2494.527344 0.064645
2494.208008 0.063949
2493.694336 0.059013
2493.365234 0.062081
2492.860352 0.063685
2492.523438 0.059288
2492.027344 0.058991
2491.680664 0.063905
2491.193359 0.069278
2490.836914 0.059261
2490.359375 0.053353
2489.994141 0.064802
2489.525391 0.056151
2489.150391 0.062010
2488.691406 0.065497
2488.306641 0.053668
2487.856445 0.059872
2487.462891 0.056431
2487.022461 0.071085
2486.619141 0.058268
2486.187500 0.055174
2485.775391 0.060104
2485.352539 0.065449
2484.930664 0.062864
2484.517578 0.058893
2484.085938 0.059152
2483.682617 0.071032
2483.241211 0.051746
2482.846680 0.059805
2482.396484 0.056354
2482.011719 0.057926
2481.550781 0.067424
2481.175781 0.070993
2480.706055 0.057251
2480.339844 0.070979
2479.860352 0.060007
2479.503906 0.057893
2479.014648 0.059071
2478.667969 0.056949
2478.168945 0.062748
2477.832031 0.055072
2477.322266 0.057198
2476.995117 0.055995
2476.476563 0.056263
2476.158203 0.056917
2475.629883 0.053483
2475.322266 0.053175
2474.783203 0.064534
2474.485352 0.055963
2473.936523 0.060832
2473.647461 0.068076
2473.088867 0.057132
2472.810547 0.041957
2472.242188 0.051591
2471.973633 0.068983
2471.394531 0.057106
2471.135742 0.061514
2470.546875 0.061696
2470.297852 0.073616
2469.698242 0.064444
2469.459961 0.062422
2468.850586 0.057986
2468.622070 0.058685
2468.001953 0.071776
2467.784180 0.068918
2467.153320 0.057039
2466.946289 0.068905
2466.304688 0.072662
2466.107422 0.059583
2465.456055 0.062530
2465.268555 0.060502
2464.607422 0.068951
2464.429688 0.060491
2463.757813 0.061582
2463.590820 0.065132
2462.908203 0.061567
2462.751953 0.063259
2462.058594 0.056959
2461.913086 0.065107
2461.208984 0.056946
2461.073242 0.070675
2460.358398 0.059688
2460.233398 0.055785
2459.508789 0.066100
2459.394531 0.055775
2458.658203 0.053235
2458.554688 0.063200
2457.807617 0.056893
2457.713867 0.064117
2456.956055 0.057797
2456.874023 0.061318
2456.105469 0.060535
2456.033203 0.053875
2455.253906 0.054102
2455.193359 0.054794
2454.402344 0.056839
2454.352539 0.056641
2453.550781 0.051327
2453.511719 0.058487
2452.699219 0.054064
2452.670898 0.064973
2451.846680 0.051303
2451.829102 0.064961
2450.995117 0.054038
2450.988281 0.058453
2450.146484 0.046700
2450.142578 0.056587
2449.304688 0.056759
2449.290039 0.059359
2448.462891 0.058576
2448.436523 0.063984
2447.621094 0.056555
2447.583984 0.055817
2446.779297 0.057471
2446.730469 0.064038
2445.937500 0.056534
2445.876953 0.055791
2445.094727 0.054670
2445.023438 0.050292
2444.251953 0.051880
2444.169922 0.056679
2443.409180 0.058354
2443.315430 0.054837
2442.566406 0.051860
2442.460938 0.054824
2441.723633 0.054628
2441.606445 0.047503
2440.879883 0.055544
2440.751953 0.052059
2440.037109 0.054608
2439.897461 0.054785
2439.193359 0.052746
2439.041992 0.043818
2438.349609 0.053662
2438.186523 0.051109
2437.505859 0.055501
2437.331055 0.052009
2436.662109 0.059190
2436.475586 0.048348
2435.817383 0.056405
2435.619141 0.057456
2434.973633 0.055470
2434.763672 0.054707
2434.128906 0.048989
2433.907227 0.054694
2433.284180 0.059145
2433.050781 0.050124
2432.439453 0.057286
2432.194336 0.050112
2431.593750 0.051732
2431.336914 0.045546
2430.749023 0.053570
2430.479492 0.050089
2429.903320 0.054483
2429.622070 0.044614
2429.058594 0.054473
2428.764648 0.053706
2428.212891 0.056308
2427.907227 0.050963
2427.367188 0.052606
2427.048828 0.047311
2426.520508 0.056287
2426.191406 0.047300
2425.674805 0.059044
2425.333008 0.053654
2424.828125 0.050731
2424.473633 0.056369
2423.982422 0.057177
2423.615234 0.054537
2423.135742 0.056244
2422.755859 0.049980
2422.289063 0.058077
2421.897461 0.055420
2421.441406 0.060831
2421.038086 0.042690
2420.594727 0.054369
2420.177734 0.052669
2419.747070 0.054358
2419.318359 0.048117
2418.900391 0.054348
2418.458008 0.043567
2418.052734 0.050653
2417.597656 0.046278
2417.205078 0.057089
2416.737305 0.055339
2416.356445 0.052475
2415.876953 0.047163
2415.508789 0.051545
2415.015625 0.054406
2414.660156 0.057977
2414.155273 0.050766
2413.812500 0.054285
2413.293945 0.052567
2412.963867 0.050595
2412.115234 0.053345
2411.266602 0.058852
2410.416992 0.051485
2409.568359 0.054233
2408.718750 0.056980
2407.869141 0.061563
2407.019531 0.051446
2406.169922 0.045006
2405.319336 0.043161
2404.469727 0.053252
2403.619141 0.059668
2402.768555 0.038547
2401.917969 0.052304
2401.066406 0.052294
2400.215820 0.052284
2399.364258 0.047688
2398.513672 0.054097
2397.662109 0.057754
2396.810547 0.045827
2395.958008 0.046735
2395.106445 0.046726
2394.253906 0.055877
2393.402344 0.054035
2392.549805 0.050361
2391.697266 0.048521
2390.843750 0.048511
2389.991211 0.053077
2389.137695 0.048492
2388.284180 0.055801
2387.430664 0.056705
2386.577148 0.049379
2385.723633 0.053940
2384.869141 0.051188
2384.015625 0.053005
2383.161133 0.049340
2382.306641 0.052071
2381.452148 0.055715
2380.597656 0.063922
2379.742188 0.052954
2378.886719 0.048379
2378.032227 0.050195
2377.176758 0.052923
2376.320313 0.052000
2375.464844 0.051990
2374.609375 0.056540
2373.752930 0.047411
2372.896484 0.058341
2372.040039 0.058329
2371.183594 0.066519
2370.326172 0.061040
2369.469727 0.051919
2368.612305 0.050998
2367.754883 0.063735
2366.897461 0.055530
2366.040039 0.058250
2365.182617 0.058238
2364.324219 0.059137
2363.465820 0.050938
2362.607422 0.054566
2361.749023 0.056374
2360.890625 0.047272
2360.031250 0.053625
2359.172852 0.063611
2358.313477 0.053604
2357.454102 0.052685
2356.594727 0.057216
2355.735352 0.055389
2354.875000 0.063548
2354.015625 0.051736
2353.155273 0.061708
2352.294922 0.058067
2351.434570 0.068034
2350.573242 0.052603
2349.712891 0.061660
2348.851563 0.049862
2347.990234 0.052571
2347.128906 0.060717
2346.267578 0.062517
2345.406250 0.060693
2344.543945 0.059776
2343.681641 0.060669
2342.819336 0.062468
2341.957031 0.057025
2341.094727 0.050679
2340.232422 0.052478
2339.369141 0.045231
2338.505859 0.055171
2337.642578 0.054256
2336.779297 0.053341
2335.916016 0.055138
2335.051758 0.063261
2334.188477 0.063248
2333.324219 0.055105
2332.459961 0.047869
2331.595703 0.059599
2330.730469 0.059587
2329.866211 0.066796
2329.000977 0.060466
2328.135742 0.056845
2327.270508 0.060442
2326.405273 0.061332
2325.540039 0.057712
2324.673828 0.057701
2323.807617 0.056788
2322.941406 0.054073
2322.075195 0.061271
2321.208984 0.068466
2320.341797 0.067551
2319.475586 0.053130
2318.608398 0.065724
2317.741211 0.057609
2316.874023 0.057598
2316.005859 0.059386
2315.138672 0.054876
2314.270508 0.053966
2313.402344 0.061149
2312.534180 0.053944
2311.666016 0.053934
2310.797852 0.053024
2309.928711 0.053912
2309.059570 0.056596
2308.190430 0.053890
2307.321289 0.061962
2306.452148 0.067336
2305.582031 0.052961
2304.712891 0.054745
2303.842773 0.051145
2302.972656 0.059209
2302.102539 0.060094
2301.231445 0.057391
2300.361328 0.062759
2299.490234 0.061850
2298.619141 0.069904
2297.748047 0.065410
2296.876953 0.055542
2296.004883 0.052844
2295.133789 0.062684
2294.261719 0.071624
2293.389648 0.062659
2292.517578 0.069806
2291.645508 0.062634
2290.772461 0.052781
2289.899414 0.062609
2289.027344 0.062596
2288.153320 0.061689
2287.280273 0.056314
2286.407227 0.062558
2285.533203 0.062546
2284.660156 0.053600
2283.786133 0.061627
2282.911133 0.050006
2282.037109 0.055353
2281.163086 0.056235
2280.288086 0.070502
2279.413086 0.066027
2278.538086 0.059769
2277.663086 0.058865
2276.787109 0.055286
2275.912109 0.054384
2275.036133 0.064178
2274.160156 0.071294
2273.284180 0.061479
2272.408203 0.074829
2271.531250 0.065016
2270.655273 0.062332
2269.778320 0.066771
2268.901367 0.062307
2268.024414 0.056065
2267.146484 0.067620
2266.269531 0.061380
2265.391602 0.076487
2264.513672 0.069357
2263.635742 0.059564
2262.757813 0.066663
2261.878906 0.062206
2261.000000 0.072855
2260.122070 0.068399
2259.243164 0.060392
2258.363281 0.074587
2257.484375 0.060368
2256.604492 0.058580
2255.725586 0.062118
2254.845703 0.062105
2253.965820 0.073624
2253.084961 0.069175
2252.205078 0.062068
2251.324219 0.062055
2250.443359 0.068247
2249.562500 0.062030
2248.681641 0.073535
2247.800781 0.068205
2246.918945 0.065534
2246.037109 0.059323
2245.155273 0.075245
2244.273438 0.069035
2243.391602 0.065481
2242.509766 0.065468
2241.626953 0.067224
2240.744141 0.068094
2239.861328 0.070733
2238.978516 0.061879
2238.094727 0.057447
2237.211914 0.065388
2236.328125 0.070675
2235.444336 0.067128
2234.560547 0.061816
2233.675781 0.065335
2232.791992 0.064439
2231.907227 0.066190
2231.022461 0.067942
2230.137695 0.065281
2229.252930 0.075852
2228.368164 0.057318
2227.482422 0.064360
2226.596680 0.061702
2225.710938 0.061690
2224.825195 0.066082
2223.938477 0.064307
2223.052734 0.074863
2222.166016 0.065161
2221.279297 0.065148
2220.392578 0.066015
2219.505859 0.066881
2218.618164 0.075666
2217.731445 0.070373
2216.843750 0.075635
2215.956055 0.074740
2215.068359 0.061538
2214.179688 0.070315
2213.291016 0.075573
2212.403320 0.065015
2211.514648 0.067636
2210.625977 0.065866
2209.736328 0.063218
2208.847656 0.061450
2207.958008 0.071092
2207.068359 0.057037
2206.178711 0.077204
2205.289063 0.071925
2204.398438 0.066648
2203.507813 0.060497
2202.618164 0.076263
2201.727539 0.069236
2200.835938 0.065717
2199.945313 0.067456
2199.053711 0.070070
2198.162109 0.077936
2197.270508 0.075294
2196.378906 0.071777
2195.487305 0.061260
2194.594727 0.068247
2193.703125 0.063859
2192.810547 0.072592
2191.917969 0.075201
2191.024414 0.064694
2190.131836 0.071673
2189.238281 0.058550
2188.344727 0.067275
2187.451172 0.078617
2186.557617 0.068994
2185.664063 0.072472
2184.769531 0.063728
2183.875000 0.066333
2182.980469 0.063701
2182.085938 0.065433
2181.191406 0.068909
2180.295898 0.067150
2179.400391 0.076727
2178.504883 0.077583
2177.609375 0.057521
2176.713867 0.063609
2175.817383 0.072308
2174.921875 0.067067
2174.025391 0.070536
2173.128906 0.076616
2172.231445 0.070507
2171.334961 0.070492
2170.437500 0.071348
2169.540039 0.066983
2168.642578 0.067839
2167.745117 0.080868
2166.847656 0.063464
2165.949219 0.068666
2165.050781 0.072128
2164.152344 0.073850
2163.253906 0.069492
2162.354492 0.071214
2161.456055 0.079014
2160.556641 0.068580
2159.657227 0.074641
2158.757813 0.065081
2157.858398 0.078081
2156.958008 0.081534
2156.057617 0.074579
2155.157227 0.067627
2154.256836 0.070214
2153.356445 0.084066
2152.456055 0.060653
2151.554688 0.077100
2150.653320 0.067557
2149.751953 0.071872
2148.850586 0.077052
2147.948242 0.072708
2147.045898 0.083943
2146.144531 0.084791
2145.242188 0.067472
2144.338867 0.081296
2143.436523 0.060527
2142.533203 0.076075
2141.629883 0.077787
2140.726563 0.075179
2139.823242 0.084666
2138.919922 0.085512
2138.015625 0.085494
2137.111328 0.088067
2136.207031 0.076826
2135.302734 0.075084
2134.398438 0.082834
2133.493164 0.087993
2132.588867 0.084524
2131.683594 0.083644
2130.778320 0.081040
2129.872070 0.084471
2128.966797 0.081006
2128.060547 0.086159
2127.154297 0.080972
2126.248047 0.083539
2125.341797 0.088688
2124.434570 0.089530
2123.527344 0.089511
2122.620117 0.080887
2121.712891 0.080010
2120.805664 0.079133
2119.897461 0.080836
2118.990234 0.078240
2118.082031 0.084240
2117.173828 0.082504
2116.265625 0.077331
2115.356445 0.079033
2114.447266 0.073863
2113.539063 0.083293
2112.628906 0.078124
2111.719727 0.077249
2110.810547 0.080666
2109.900391 0.072927
2108.990234 0.081489
2108.080078 0.080614
2107.169922 0.080597
2106.258789 0.086581
2105.348633 0.083991
2104.437500 0.084830
2103.526367 0.070249
2102.615234 0.082225
2101.703125 0.080495
2100.791992 0.077053
2099.879883 0.082173
2098.967773 0.072742
2098.055664 0.076149
2097.142578 0.086398
2096.230469 0.075261
2095.317383 0.075245
2094.404297 0.078649
2093.490234 0.086324
2092.577148 0.082888
2091.663086 0.080307
2090.750000 0.075165
2089.835938 0.088813
2088.920898 0.081110
2088.006836 0.083653
2087.091797 0.090463
2086.177734 0.067406
2085.262695 0.078481
2084.346680 0.079318
2083.431641 0.071626
2082.515625 0.080989
2081.600586 0.075858
2080.684570 0.083511
2079.767578 0.082641
2078.851563 0.071550
2077.934570 0.084309
2077.017578 0.080034
2076.100586 0.079165
2075.183594 0.070638
2074.266602 0.085939
2073.348633 0.086771
2072.430664 0.082500
2071.512695 0.079081
2070.594727 0.085015
2069.676758 0.082447
2068.757813 0.084978
2067.838867 0.084111
2066.919922 0.082394
2066.000977 0.087471
2065.082031 0.091698
2064.162109 0.085736
2063.242188 0.084869
2062.322266 0.089093
2061.402344 0.092468
2060.481445 0.078877
2059.561523 0.077165
2058.640625 0.069518
2057.719727 0.086455
2056.798828 0.088979
2055.876953 0.085571
2054.956055 0.082164
2054.034180 0.082146
2053.112305 0.088055
2052.189453 0.085497
2051.267578 0.081247
2050.344727 0.084614
2049.421875 0.087133
2048.499023 0.089652
2047.576172 0.084559
2046.652344 0.090459
2045.729492 0.095511
2044.805664 0.085349
2043.881836 0.085331
2042.957031 0.087847
2042.033203 0.081072
2041.108398 0.093719
2040.183594 0.092854
2039.258789 0.082707
2038.333984 0.089439
2037.408203 0.096168
2036.483398 0.091930
2035.557617 0.096127
2034.630859 0.091891
2033.705078 0.085971
2032.778320 0.091851
2031.852539 0.095201
2030.925781 0.081778
2030.818359 0.093496
2029.999023 0.086836
2029.892578 0.096844
2029.071289 0.084293
2028.965820 0.088403
2028.144531 0.091864
2028.040039 0.079125
2027.216797 0.079208
2027.113281 0.087523
2026.289063 0.091832
2026.186523 0.097601
2025.361328 0.091817
2025.260742 0.094215
2024.432617 0.090959
2024.333008 0.089989
2023.503906 0.081681
2023.406250 0.086606
2022.576172 0.079983
2022.479492 0.088269
2021.647461 0.085020
2021.551758 0.089930
2020.717773 0.091739
2020.624023 0.092432
2019.789063 0.089199
2019.696289 0.091571
2018.859375 0.096756
2018.768555 0.093231
2017.929688 0.096739
2017.840820 0.094051
2017.000000 0.081583
2016.913086 0.093191
2016.070313 0.093342
2015.984375 0.088973
2015.139648 0.092486
2015.055664 0.099024
2014.209961 0.088267
2014.126953 0.093969
2013.279297 0.083209
2013.198242 0.093109
2012.348633 0.092438
2012.269531 0.091412
2011.416992 0.090742
2011.340820 0.088876
2010.486328 0.088206
2010.411133 0.093886
2009.554688 0.099110
2009.482422 0.097218
2008.623047 0.107490
2008.552734 0.102224
2007.691406 0.101594
2007.623047 0.100527
2006.759766 0.094861
2006.692383 0.098829
2005.827148 0.091487
2005.762695 0.097133
2004.894531 0.097346
2004.833008 0.097112
2003.961914 0.099007
2003.902344 0.102949
2003.029297 0.098151
2002.971680 0.102927
2002.096680 0.099812
2002.041016 0.086172
2001.163086 0.088054
2001.110352 0.104555
2000.229492 0.090554
2000.178711 0.096169
1999.295898 0.088023
1999.248047 0.102000
1998.362305 0.097228
1998.316406 0.095291
1997.427734 0.101401
1997.384766 0.091927
1996.494141 0.085464
1996.453125 0.102769
1995.559570 0.104716
1995.521484 0.089381
1994.625000 0.097160
1994.589844 0.102723
1993.689453 0.090443
1993.657227 0.100196
1992.754883 0.097126
1992.724609 0.093496
1991.819336 0.095435
1991.792969 0.096813
1990.883789 0.099603
1990.860352 0.098461
1989.948242 0.087870
1989.926758 0.111787
1989.012695 0.097058
1988.994141 0.110094
1988.076172 0.097041
1988.061523 0.098396
1987.139648 0.090333
1987.127930 0.101709
1986.203125 0.096171
1986.194336 0.094185
1985.266602 0.093645
1985.260742 0.096664
1984.330078 0.099481
1984.327148 0.094976
1983.392578 0.091105
1983.392578 0.097454
1982.458984 0.102788
1982.455078 0.114088
1981.524414 0.101935
1981.517578 0.089918
1980.589844 0.094398
1980.580078 0.110708
1979.655273 0.108581
1979.641602 0.103193
1978.720703 0.095200
1978.703125 0.110658
1977.786133 0.105202
1977.765625 0.102316
1976.850586 0.106019
1976.826172 0.109778
1975.915039 0.091811
1975.887695 0.103933
1974.979492 0.085953
1974.948242 0.107235
1974.043945 0.099287
1974.009766 0.101394
1973.108398 0.102607
1973.070313 0.098878
1972.172852 0.099252
1972.130859 0.099687
1971.236328 0.093397
1971.190430 0.108801
1970.299805 0.095882
1970.250000 0.105455
1969.363281 0.106702
1969.310547 0.101281
1968.426758 0.103349
1968.370117 0.102919
1967.490234 0.097497
1967.428711 0.097087
1966.553711 0.105811
1966.488281 0.100384
1965.616211 0.102460
1965.546875 0.102020
1964.678711 0.091615
1964.605469 0.111119
1963.741211 0.096595
1963.664063 0.111095
1962.803711 0.102405
1962.722656 0.107754
1961.866211 0.104052
1961.780273 0.110216
1960.928711 0.097375
1960.837891 0.125933
1959.990234 0.102350
1959.895508 0.105197
1959.051758 0.104828
1958.953125 0.108486
1958.113281 0.102314
1958.010742 0.106806
1957.174805 0.106454
1957.067383 0.093538
1956.236328 0.116413
1956.124023 0.120000
1955.296875 0.110572
1955.180664 0.107562
1954.357422 0.098915
1954.237305 0.114983
1953.418945 0.119674
1953.292969 0.105859
1952.479492 0.111343
1952.349609 0.115758
1951.539063 0.106338
1951.405273 0.094239
1950.599609 0.107981
1950.460938 0.109921
1949.660156 0.103809
1949.515625 0.097502
1948.719727 0.117075
1948.571289 0.118958
1947.779297 0.100450
1947.625977 0.109021
1946.838867 0.111222
1946.680664 0.103216
1945.898438 0.098754
1945.735352 0.122180
1944.957031 0.100396
1944.789063 0.110598
1944.016602 0.110332
1943.842773 0.116349
1943.075195 0.103677
1942.896484 0.113023
1942.133789 0.114439
1941.950195 0.112998
1941.192383 0.107785
1941.003906 0.118745
1940.250977 0.097818
1940.056641 0.109649
1939.308594 0.105259
1939.110352 0.117043
1938.366211 0.105240
1938.163086 0.113720
1937.424805 0.110192
1937.215820 0.112046
1936.482422 0.117627
1936.267578 0.118611
1935.539063 0.097728
1935.319336 0.118584
1934.596680 0.119240
1934.372070 0.107031
1933.654297 0.101832
1933.422852 0.105360
1932.710938 0.114230
1932.474609 0.112743
1931.767578 0.114209
1931.526367 0.119299
1930.824219 0.110878
1930.577148 0.117627
1929.880859 0.104240
1929.627930 0.110199
1928.936523 0.120763
1928.678711 0.108530
1927.993164 0.132319
1927.728516 0.115903
1927.048828 0.118238
1926.779297 0.119164
1926.104492 0.116563
1925.829102 0.113386
1925.160156 0.109930
1924.878906 0.119110
1924.215820 0.113215
1923.928711 0.119904
1923.270508 0.116499
1922.977539 0.107561
1922.326172 0.109043
1922.026367 0.108358
1921.380859 0.105719
1921.075195 0.119002
1920.435547 0.110654
1920.124023 0.115693
1919.490234 0.108982
1919.172852 0.107463
1918.543945 0.131250
1918.220703 0.112360
1917.598633 0.106466
1917.268555 0.124633
1916.652344 0.132852
1916.316406 0.123785
1915.706055 0.116327
1915.364258 0.109004
1914.759766 0.119605
1914.411133 0.117174
1913.813477 0.112985
1913.458984 0.123701
1912.866211 0.120385
1912.505859 0.122853
1911.919922 0.110470
1911.552734 0.112999
1910.972656 0.107152
1910.598633 0.113792
1910.025391 0.115373
1909.645508 0.120314
1909.078125 0.102169
1908.691406 0.127651
1908.129883 0.106269
1907.737305 0.107987
1907.182617 0.115309
1906.782227 0.124321
1906.234375 0.121876
1905.828125 0.120204
1905.286133 0.116090
1904.873047 0.109548
1904.337891 0.125123
1903.917969 0.122600
1903.389648 0.109462
1902.962891 0.131561
1902.440430 0.106973
1902.006836 0.113558
1901.492188 0.114357
1901.051758 0.120066
1900.542969 0.123384
1900.095703 0.119222
1899.593750 0.120894
1899.139648 0.123276
1898.644531 0.110182
1898.183594 0.120799
1897.695313 0.108517
1897.226563 0.123219
1896.745117 0.133977
1896.269531 0.127270
1895.794922 0.126556
1895.312500 0.119084
1894.844727 0.113386
1894.355469 0.120688
1893.894531 0.117472
1893.398438 0.121475
1892.944336 0.122378
1892.440430 0.124708
1891.994141 0.117428
1891.482422 0.115715
1891.042969 0.117406
1890.524414 0.118947
1890.091797 0.119847
1889.566406 0.127065
1889.140625 0.130493
1888.607422 0.136807
1888.189453 0.113237
1887.648438 0.122935
1887.238281 0.115677
1886.689453 0.118837
1886.286133 0.123037
1885.730469 0.113113
1885.334961 0.120554
1884.770508 0.131799
1884.382813 0.112332
1883.811523 0.135836
1883.430664 0.116409
1882.851563 0.121980
1882.477539 0.124584
1881.891602 0.130082
1881.525391 0.125380
1880.930664 0.114608
1880.572266 0.119621
1879.970703 0.121082
1879.619141 0.120417
1879.009766 0.117805
1878.666016 0.113842
1878.048828 0.127524
1877.712891 0.122828
1877.086914 0.132367
1876.759766 0.117074
1876.125977 0.101485
1875.805664 0.119507
1875.164063 0.123377
1874.852539 0.120303
1874.202148 0.135521
1873.898438 0.134190
1873.240234 0.124942
1872.943359 0.123530
1872.277344 0.108690
1871.989258 0.120235
1871.315430 0.127316
1871.035156 0.118576
1870.352539 0.117558
1870.080078 0.112013
1869.389648 0.133741
1869.125000 0.119349
1868.425781 0.123986
1868.169922 0.123412
1867.462891 0.130438
1867.214844 0.112766
1866.499023 0.129598
1866.258789 0.109477
1865.535156 0.131187
1865.303711 0.113540
1864.570313 0.118203
1864.347656 0.130668
1863.606445 0.116556
1863.391602 0.120845
1862.641602 0.130286
1862.435547 0.126537
1861.676758 0.127019
1861.479492 0.106924
1860.711914 0.115665
1860.522461 0.127304
1859.746094 0.114226
1859.565430 0.127768
1858.781250 0.133782
1858.608398 0.125313
1857.815430 0.128047
1857.651367 0.132558
1856.849609 0.125576
1856.694336 0.129294
1855.882813 0.127998
1855.736328 0.140574
1854.916992 0.122268
1854.779297 0.123579
1853.950195 0.118984
1853.821289 0.125973
1852.983398 0.117332
1852.863281 0.140475
1852.015625 0.129529
1851.905273 0.124299
1851.048828 0.113214
1850.946289 0.123463
1850.081055 0.125408
1849.988281 0.131501
1849.113281 0.127012
1849.029297 0.139536
1848.145508 0.123731
1848.070313 0.129020
1847.176758 0.127777
1847.111328 0.138664
1846.208008 0.141585
1846.151367 0.136213
1845.239258 0.135863
1845.192383 0.117647
1844.270508 0.135023
1844.232422 0.133732
1843.301758 0.116293
1843.272461 0.124840
1842.332031 0.133345
1842.312500 0.146552
1841.362305 0.130068
1841.352539 0.139272
1840.392578 0.134107
1840.391602 0.122337
1839.430664 0.130018
1839.422852 0.132769
1838.470703 0.125118
1838.452148 0.146413
1837.508789 0.146213
1837.481445 0.143965
1836.547852 0.131566
1836.510742 0.139911
1835.586914 0.123421
1835.540039 0.133446
1834.625000 0.139634
1834.568359 0.144666
1833.663086 0.131490
1833.597656 0.142221
1832.701172 0.139580
1832.625000 0.142991
1831.739258 0.131439
1831.653320 0.142957
1830.777344 0.141148
1830.681641 0.138105
1829.814453 0.140309
1829.708984 0.144494
1828.851563 0.142715
1828.736328 0.137236
1827.888672 0.145930
1827.763672 0.148437
1826.925781 0.135364
1826.790039 0.129951
1825.962891 0.136148
1825.817383 0.129920
1824.999023 0.140173
1824.843750 0.138709
1824.035156 0.138526
1823.869141 0.131461
1823.071289 0.151458
1822.895508 0.130628
1822.107422 0.136852
1821.920898 0.126591
1821.143555 0.140064
1820.947266 0.144183
1820.178711 0.133561
1819.971680 0.125729
1819.214844 0.148102
1818.997070 0.141712
1818.250000 0.137555
1818.021484 0.135274
1817.285156 0.139955
1817.046875 0.136842
1816.319336 0.136692
1816.070313 0.136809
1815.354492 0.136665
1815.094727 0.140775
1814.388672 0.138256
1814.119141 0.134344
1813.422852 0.132570
1813.142578 0.138309
1812.457031 0.149516
1812.166016 0.141473
1811.491211 0.139791
1811.188477 0.139041
1810.525391 0.130069
1810.211914 0.143801
1809.558594 0.146198
1809.234375 0.137377
1808.591797 0.143746
1808.256836 0.130157
1807.625000 0.134029
1807.279297 0.135714
1806.658203 0.134003
1806.300781 0.133286
1805.690430 0.140433
1805.322266 0.130062
1804.723633 0.133950
1804.343750 0.115672
1803.755859 0.145219
1803.365234 0.133987
1802.788086 0.129058
1802.386719 0.133954
1801.820313 0.138710
1801.407227 0.133922
1800.851563 0.147552
1800.427734 0.148235
1799.883789 0.147523
1799.448242 0.141028
1798.915039 0.137822
1798.467773 0.137010
1797.946289 0.141018
1797.488281 0.149719
1796.977539 0.129711
1796.507813 0.146498
1796.007813 0.137741
1795.527344 0.124970
1795.039063 0.127244
1794.545898 0.152793
1794.069336 0.155400
1793.564453 0.147982
1793.099609 0.145710
1792.583008 0.146355
1792.129883 0.143266
1791.601563 0.159838
1791.160156 0.145652
1790.620117 0.139923
1790.189453 0.125510
1789.637695 0.147042
1789.218750 0.140768
1788.655273 0.143828
1788.248047 0.146370
1787.672852 0.157298
1787.277344 0.135084
1786.690430 0.148523
1786.306641 0.146312
1785.707031 0.143722
1785.334961 0.149498
1784.723633 0.147656
1784.364258 0.157504
1783.740234 0.154763
1783.392578 0.145422
1782.756836 0.156312
1782.420898 0.154229
1781.772461 0.150720
1781.448242 0.138136
1780.788086 0.155442
1780.476563 0.164606
1779.803711 0.149060
1779.503906 0.147715
1778.819336 0.142682
1778.531250 0.151699
1777.833984 0.146609
1777.558594 0.156483
1776.848633 0.171926
1776.585938 0.145220
1775.863281 0.145745
1775.612305 0.158026
1774.877930 0.154420
1774.638672 0.156390
1773.891602 0.148840
1773.666016 0.162774
1772.905273 0.163841
1772.691406 0.158733
1771.918945 0.146392
1771.717773 0.165915
1770.931641 0.171492
1770.744141 0.165342
1769.945313 0.165048
1769.769531 0.163720
1768.958008 0.170622
1768.794922 0.156562
1767.970703 0.160978
1767.820313 0.161267
1766.982422 0.162547
1766.845703 0.162807
1765.995117 0.164916
1765.870117 0.155656
1765.006836 0.152077
1764.894531 0.168256
1764.018555 0.140843
1763.919922 0.156368
1763.029297 0.172818
1762.944336 0.159487
1762.041016 0.170384
1761.967773 0.163394
1761.051758 0.165551
1760.992188 0.153884
1760.062500 0.171116
1760.015625 0.145956
1759.072266 0.163087
1759.039063 0.164061
1758.083008 0.168649
1758.062500 0.169539
1757.092773 0.167816
1757.085938 0.168709
1756.108398 0.166185
1756.101563 0.167090
1755.131836 0.170146
1755.111328 0.165472
1754.154297 0.160528
1754.120117 0.165431
1753.176758 0.166883
1753.128906 0.170902
1752.198242 0.173237
1751.220703 0.158037
1750.242188 0.173167
1749.263672 0.165952
1748.285156 0.160335
1747.306641 0.165088
1746.327148 0.178610
1745.348633 0.161832
1744.369141 0.160206
1743.389648 0.165752
1742.409180 0.156158
1741.429688 0.163295
1740.449219 0.170430
1739.468750 0.154471
1738.488281 0.161605
1737.507813 0.171123
1736.526367 0.171884
1735.544922 0.156733
1734.563477 0.155906
1733.582031 0.161442
1732.600586 0.157433
1731.618164 0.166941
1730.636719 0.154191
1729.654297 0.162106
1728.671875 0.171607
1727.688477 0.172366
1726.706055 0.177891
1725.722656 0.161181
1724.739258 0.180200
1723.755859 0.161909
1722.771484 0.173779
1721.788086 0.183264
1720.803711 0.168156
1719.819336 0.166536
1718.834961 0.187910
1717.850586 0.178359
1716.865234 0.174360
1715.879883 0.187003
1714.894531 0.169536
1713.909180 0.168710
1712.923828 0.174219
1711.937500 0.190810
1710.951172 0.185230
1709.964844 0.170947
1708.978516 0.168538
1707.991211 0.180370
1707.004883 0.181915
1706.017578 0.192159
1705.030273 0.186585
1704.042969 0.180223
1703.054688 0.188090
1702.066406 0.203854
1701.078125 0.185643
1700.089844 0.191134
1699.101563 0.193464
1698.113281 0.187898
1697.124023 0.188649
1696.134766 0.174405
1695.145508 0.176737
1694.155273 0.192477
1693.166016 0.173510
1692.175781 0.186090
1691.185547 0.189994
1690.195313 0.190743
1689.205078 0.200161
1688.213867 0.181211
1687.222656 0.164632
1686.231445 0.182712
1685.240234 0.177950
1684.249023 0.177126
1683.256836 0.171580
1682.264648 0.185709
1681.272461 0.177804
1680.280273 0.192712
1679.287109 0.176944
1678.294922 0.190274
1677.301758 0.186305
1676.308594 0.179193
1675.315430 0.192514
1674.321289 0.205830
1673.327148 0.205003
1672.333008 0.189255
1671.338867 0.193141
1670.344727 0.195456
1669.349609 0.193846
1668.355469 0.207930
1667.360352 0.195336
1666.365234 0.189805
1665.369141 0.196823
1664.374023 0.210895
1663.377930 0.199094
1662.381836 0.189648
1661.384766 0.200578
1660.388672 0.205237
1659.391602 0.177000
1658.395508 0.194973
1657.397461 0.198064
1656.400391 0.187848
1655.403320 0.194852
1654.405273 0.204983
1653.407227 0.193207
1652.409180 0.208808
1651.411133 0.196255
1650.412109 0.196214
1649.413086 0.200863
1648.414063 0.187537
1647.415039 0.199998
1646.416016 0.201519
1645.416016 0.203039
1644.416016 0.202997
1643.416016 0.201394
1642.416016 0.210717
1641.415039 0.204431
1640.415039 0.204389
1639.414063 0.211366
1638.413086 0.221459
1637.411133 0.221413
1636.410156 0.231500
1635.408203 0.209631
1634.406250 0.212704
1633.404297 0.216555
1632.402344 0.220404
1631.399414 0.217243
1630.396484 0.217198
1629.393555 0.224936
1628.390625 0.225668
1627.387695 0.220952
1626.383789 0.229463
1625.379883 0.225526
1624.375977 0.218482
1623.372070 0.237093
1622.367188 0.214505
1621.362305 0.224561
1620.357422 0.226845
1619.352539 0.216700
1618.347656 0.226750
1617.341797 0.230585
1616.335938 0.232865
1615.330078 0.231264
1614.324219 0.231216
1613.318359 0.233495
1612.311523 0.242753
1611.304688 0.234948
1610.297852 0.233348
1609.291016 0.244150
1608.283203 0.228601
1607.275391 0.233202
1606.267578 0.233927
1605.259766 0.237750
1604.251953 0.236926
1603.243164 0.257003
1602.234375 0.222896
1601.225586 0.242194
1600.216797 0.257615
1599.207031 0.240545
1598.198242 0.250547
1597.188477 0.252041
1596.178711 0.248123
1595.167969 0.244980
1594.158203 0.242610
1593.147461 0.261871
1592.136719 0.242508
1591.125977 0.257901
1590.114258 0.268654
1589.103516 0.253933
1588.091797 0.266998
1587.080078 0.263084
1586.067383 0.255315
1585.055664 0.274541
1584.042969 0.272941
1583.030273 0.271342
1582.017578 0.276679
1581.003906 0.298196
1579.991211 0.272711
1578.977539 0.285747
1577.963867 0.286456
1576.949219 0.309492
1575.935547 0.280947
1574.920898 0.298588
1573.906250 0.282368
1572.891602 0.283077
1571.876953 0.287632
1570.861328 0.286033
1569.845703 0.277516
1568.830078 0.261317
1567.814453 0.274325
1566.797852 0.260439
1565.782227 0.255007
1564.765625 0.254953
1563.749023 0.255666
1562.731445 0.240260
1561.714844 0.224093
1560.697266 0.241693
1559.679688 0.229368
1558.662109 0.241590
1557.643555 0.236172
1556.625000 0.233055
1555.607422 0.229940
1554.587891 0.218396
1553.569336 0.227544
1552.549805 0.229793
1551.531250 0.228979
1550.511719 0.224336
1549.491211 0.249549
1548.471680 0.221945
1547.451172 0.229549
1546.430664 0.225675
1545.410156 0.232511
1544.389648 0.241637
1543.368164 0.233176
1542.346680 0.230833
1541.325195 0.240719
1540.303711 0.246016
1539.282227 0.231450
1538.259766 0.239037
1537.237305 0.228297
1536.214844 0.244279
1535.191406 0.241937
1534.168945 0.238070
1533.145508 0.231917
1532.122070 0.237969
1531.098633 0.231818
1530.074219 0.216520
1529.050781 0.229432
1528.026367 0.230145
1527.000977 0.224762
1525.976563 0.221667
1524.951172 0.228474
1523.926758 0.232994
1522.901367 0.246646
1521.875000 0.229850
1520.849609 0.228279
1519.823242 0.230512
1518.796875 0.225138
1517.770508 0.225090
1516.743164 0.232645
1515.716797 0.230314
1514.689453 0.242424
1513.662109 0.227936
1512.634766 0.243840
1511.606445 0.227079
1510.578125 0.228549
1509.549805 0.238369
1508.521484 0.234523
1507.493164 0.252684
1506.463867 0.243526
1505.434570 0.247266
1504.405273 0.247212
1503.375977 0.233512
1502.345703 0.238768
1501.315430 0.254631
1500.285156 0.250030
1499.254883 0.238614
1498.223633 0.245379
1497.193359 0.246083
1496.162109 0.230890
1495.130859 0.249761
1494.098633 0.241384
1493.067383 0.237549
1492.035156 0.249600
1491.002930 0.225348
1489.969727 0.254784
1488.937500 0.235077
1487.904297 0.253163
1486.871094 0.243286
1485.837891 0.231148
1484.803711 0.237895
1483.770508 0.243884
1482.736328 0.230998
1481.702148 0.233212
1480.666992 0.239198
1479.632813 0.244427
1478.597656 0.248146
1477.562500 0.239043
1476.527344 0.214866
1475.491211 0.245723
1474.455078 0.252452
1473.418945 0.245617
1472.382813 0.245564
1471.346680 0.251535
1470.309570 0.245457
1469.272461 0.236371
1468.235352 0.235567
1467.198242 0.227991
1466.160156 0.233960
1465.122070 0.233909
1464.083984 0.253409
1463.045898 0.234559
1462.006836 0.228495
1460.968750 0.238215
1459.929688 0.241920
1458.889648 0.249378
1457.850586 0.251577
1456.810547 0.253775
1455.771484 0.248465
1454.730469 0.235653
1453.690430 0.249107
1452.649414 0.234800
1451.609375 0.257999
1450.568359 0.257943
1449.526367 0.250390
1448.485352 0.256331
1447.443359 0.246534
1446.401367 0.246480
1445.359375 0.274889
1444.316406 0.258354
1443.274414 0.277764
1442.231445 0.288182
1441.188477 0.271655
1440.144531 0.282819
1439.101563 0.260316
1438.057617 0.285687
1437.013672 0.286372
1435.968750 0.277339
1434.924805 0.274289
1433.879883 0.310843
1432.834961 0.306292
1431.790039 0.314441
1430.744141 0.320346
1429.698242 0.320276
1428.653320 0.329909
1427.606445 0.338791
1426.560547 0.342447
1425.513672 0.338643
1424.466797 0.349009
1423.419922 0.353406
1422.373047 0.342147
1421.325195 0.337600
1420.277344 0.350193
1419.229492 0.335217
1418.181641 0.312056
1417.132813 0.327624
1416.084961 0.316385
1415.036133 0.349064
1413.986328 0.325920
1412.937500 0.340727
1411.887695 0.326520
1410.837891 0.330910
1409.788086 0.320429
1408.738281 0.328534
1407.687500 0.321774
1406.636719 0.316502
1405.585938 0.344659
1404.534180 0.352752
1403.483398 0.324460
1402.431641 0.332554
1401.379883 0.325801
1400.327148 0.313858
1399.275391 0.305628
1398.222656 0.319652
1397.169922 0.309942
1396.117188 0.321735
1395.063477 0.311288
1394.009766 0.311219
1392.956055 0.316336
1391.902344 0.319228
1390.848633 0.326563
1389.793945 0.325750
1388.739258 0.315316
1387.684570 0.320426
1386.628906 0.321835
1385.574219 0.335817
1384.518555 0.340919
1383.462891 0.350456
1382.406250 0.325984
1381.350586 0.337737
1380.293945 0.343573
1379.237305 0.324290
1378.179688 0.339727
1377.123047 0.351466
1376.065430 0.337362
1375.007813 0.334335
1373.949219 0.326881
1372.891602 0.316481
1371.833008 0.310510
1370.774414 0.329613
1369.715820 0.305948
1368.656250 0.290402
1367.596680 0.312444
1366.537109 0.302060
1365.477539 0.315988
1364.417969 0.287197
1363.357422 0.287133
1362.296875 0.295902
1361.236328 0.281854
1360.174805 0.306071
1359.113281 0.302324
1358.052734 0.311082
1356.990234 0.289690
1355.928711 0.300652
1354.866211 0.277067
1353.803711 0.279209
1352.741211 0.304858
1351.678711 0.295242
1350.615234 0.288567
1349.551758 0.290705
1348.488281 0.295043
1347.424805 0.279568
1346.360352 0.294178
1345.295898 0.288244
1344.231445 0.297712
1343.166992 0.298378
1342.101563 0.290249
1341.036133 0.282856
1339.970703 0.300375
1338.905273 0.300308
1337.838867 0.307563
1336.772461 0.292120
1335.706055 0.306693
1334.639648 0.317601
1333.572266 0.325578
1332.504883 0.323310
1331.437500 0.325431
1330.370117 0.354604
1329.302734 0.354524
1328.234375 0.366868
1327.166016 0.340482
1326.096680 0.376929
1325.028320 0.376114
1323.958984 0.376029
1322.889648 0.381784
1321.820313 0.370750
1320.750000 0.361911
1319.679688 0.364747
1318.609375 0.361747
1317.539063 0.362395
1316.468750 0.349920
1315.397461 0.342552
1314.326172 0.343932
1313.254883 0.338026
1312.182617 0.298619
1311.142578 0.324766
1311.110352 0.319538
1310.069336 0.306492
1310.038086 0.337007
1308.997070 0.315157
1308.965820 0.311476
1307.923828 0.324545
1307.892578 0.328155
1306.851563 0.302646
1306.820313 0.315729
1305.778320 0.309851
1305.747070 0.314945
1304.704102 0.309780
1304.672852 0.319252
1303.630859 0.304621
1303.599609 0.292293
1302.557617 0.308913
1302.525391 0.311868
1301.483398 0.304483
1301.451172 0.303817
1300.409180 0.322576
1300.376953 0.301582
1299.334961 0.298533
1299.301758 0.310247
1298.259766 0.294834
1298.227539 0.326173
1297.185547 0.315822
1297.152344 0.307230
1296.110352 0.333171
1296.076172 0.326781
1295.035156 0.324387
1295.000977 0.336161
1293.959961 0.324313
1293.924805 0.331745
1292.883789 0.329316
1292.848633 0.341846
1291.808594 0.346138
1291.772461 0.350997
1290.732422 0.343173
1290.695313 0.347292
1289.656250 0.378655
1289.618164 0.373308
1288.580078 0.380037
1288.541016 0.373948
1287.502930 0.389394
1287.463867 0.391976
1286.426758 0.393674
1286.386719 0.397681
1285.349609 0.398676
1285.308594 0.386727
1284.272461 0.389182
1284.230469 0.384467
1283.195313 0.407226
1283.152344 0.382931
1282.118164 0.375275
1282.073242 0.390081
1281.040039 0.369412
1280.994141 0.379138
1279.961914 0.378035
1279.915039 0.371095
1278.883789 0.368553
1278.835938 0.344974
1277.805664 0.351835
1277.755859 0.341280
1276.727539 0.358285
1276.676758 0.336141
1275.648438 0.335061
1275.596680 0.341123
1274.569336 0.313294
1274.515625 0.311420
1273.490234 0.316130
1273.435547 0.314961
1272.411133 0.316795
1272.354492 0.332944
1271.332031 0.308782
1271.273438 0.300375
1270.251953 0.298603
1270.191406 0.301750
1269.171875 0.297103
1269.110352 0.289411
1268.091797 0.313671
1268.028320 0.290788
1267.011719 0.291935
1266.946289 0.271244
1265.931641 0.288268
1265.864258 0.283442
1264.850586 0.284604
1264.781250 0.265350
1263.769531 0.293217
1263.698242 0.271777
1262.688477 0.281610
1262.615234 0.270273
1261.607422 0.277226
1261.532227 0.252197
1260.526367 0.272122
1260.448242 0.283116
1259.444336 0.265577
1259.364258 0.262164
1258.362305 0.274907
1258.280273 0.275065
1257.280273 0.272692
1257.196289 0.288679
1256.198242 0.273363
1256.111328 0.260543
1255.115234 0.261774
1255.026367 0.240335
1254.033203 0.273982
1253.941406 0.238122
1252.950195 0.252305
1252.856445 0.253170
1251.867188 0.263790
1251.770508 0.264617
1250.783203 0.232755
1250.684570 0.262399
1249.700195 0.269455
1249.598633 0.230714
1248.616211 0.255718
1248.511719 0.257248
1247.532227 0.247028
1247.425781 0.252878
1246.448242 0.259223
1246.338867 0.244919
1245.364258 0.257015
1245.250977 0.248452
1244.279297 0.261285
1244.164063 0.241216
1243.195313 0.234609
1243.076172 0.241878
1242.110352 0.258309
1241.988281 0.261913
1241.024414 0.253944
1240.900391 0.236743
1239.939453 0.247423
1239.812500 0.254620
1238.853516 0.245220
1238.723633 0.261014
1237.768555 0.260991
1237.634766 0.253067
1236.682617 0.264536
1236.544922 0.232223
1235.595703 0.271674
1235.456055 0.250800
1234.509766 0.247909
1234.366211 0.238563
1233.422852 0.250736
1233.276367 0.228480
1232.336914 0.257872
1232.186523 0.239168
1231.250000 0.247051
1231.095703 0.244840
1230.162109 0.244850
1230.004883 0.246930
1229.075195 0.249111
1228.914063 0.242579
1227.987305 0.246193
1227.823242 0.238945
1226.899414 0.253322
1226.731445 0.248903
1225.811523 0.247534
1225.639648 0.216667
1224.723633 0.251074
1224.547852 0.217331
1223.634766 0.233813
1223.456055 0.238722
1222.546875 0.266755
1222.363281 0.232950
1221.458008 0.235875
1221.270508 0.223608
1220.368164 0.248016
1220.177734 0.252125
1219.279297 0.237219
1219.084961 0.243498
1218.189453 0.259386
1217.991211 0.253435
1217.100586 0.262919
1216.897461 0.259800
1216.010742 0.249260
1215.803711 0.255457
1214.919922 0.276425
1214.708984 0.253971
1213.830078 0.272076
1213.614258 0.271742
1212.739258 0.279183
1212.519531 0.269539
1211.648438 0.278414
1211.424805 0.275892
1210.557617 0.298397
1210.329102 0.282242
1209.466797 0.269722
1209.234375 0.277900
1208.375977 0.290414
1208.138672 0.269999
1207.284180 0.293219
1207.041992 0.266374
1206.192383 0.301028
1205.946289 0.283401
1205.100586 0.298826
1204.849609 0.271944
1204.007813 0.273037
1203.752930 0.285403
1202.916016 0.264409
1202.655273 0.271104
1201.823242 0.290794
1201.558594 0.254679
1200.730469 0.272880
1200.460938 0.281645
1199.637695 0.278541
1199.362305 0.270913
1198.543945 0.278487
1198.264648 0.284356
1197.451172 0.282003
1197.166016 0.282867
1196.357422 0.285517
1196.067383 0.294169
1195.263672 0.310440
1194.968750 0.293390
1194.168945 0.302532
1193.870117 0.306814
1193.075195 0.288919
1192.770508 0.310292
1191.980469 0.307407
1191.670898 0.314478
1190.885742 0.308061
1190.570313 0.311565
1189.791016 0.314418
1189.470703 0.309363
1188.696289 0.316495
1188.370117 0.305033
1187.600586 0.324986
1187.269531 0.310635
1186.504883 0.297134
1186.167969 0.292835
1185.409180 0.292089
1185.067383 0.299854
1184.313477 0.299155
1183.965820 0.290570
1183.216797 0.289839
1182.864258 0.286958
1182.121094 0.281951
1181.761719 0.258555
1181.024414 0.274066
1180.659180 0.276199
1179.927734 0.263337
1179.556641 0.278258
1178.830078 0.276094
1178.454102 0.253416
1177.733398 0.265368
1177.351563 0.251233
1176.635742 0.272429
1176.248047 0.262493
1175.538086 0.273799
1175.144531 0.269505
1174.440430 0.261658
1174.040039 0.252468
1173.341797 0.273692
1172.936523 0.255943
1172.243164 0.264398
1171.832031 0.237504
1171.145508 0.267900
1170.727539 0.255114
1170.045898 0.255769
1169.622070 0.273423
1168.947266 0.254299
1168.517578 0.255699
1167.848633 0.273424
1167.412109 0.251401
1166.749023 0.256329
1166.306641 0.242868
1165.649414 0.266218
1165.200195 0.253398
1164.549805 0.264036
1164.093750 0.254749
1163.449219 0.268242
1162.987305 0.253982
1162.348633 0.271027
1161.880859 0.266618
1161.249023 0.249693
1160.773438 0.265143
1160.147461 0.263119
1159.666016 0.248865
1159.046875 0.265195
1158.558594 0.259378
1157.946289 0.274358
1157.451172 0.269885
1156.844727 0.262964
1156.342773 0.262071
1155.743164 0.256534
1155.234375 0.261304
1154.641602 0.249398
1154.125977 0.267579
1153.539063 0.262808
1153.017578 0.263290
1152.436523 0.252841
1151.908203 0.250559
1151.334961 0.266953
1150.798828 0.263164
1150.231445 0.259112
1149.689453 0.268025
1149.128906 0.288790
1148.579102 0.269367
1148.026367 0.253348
1147.468750 0.270708
1146.922852 0.265326
1146.358398 0.269237
1145.819336 0.280837
1145.248047 0.270578
1144.715820 0.277245
1144.136719 0.265594
1143.611328 0.274361
1143.025391 0.272555
1142.506836 0.281376
1141.914063 0.264062
1141.403320 0.301819
1140.801758 0.269615
1140.297852 0.266424
1139.689453 0.267444
1139.193359 0.278383
1138.577148 0.279309
1138.088867 0.274089
1137.464844 0.270121
1136.983398 0.263440
1136.351563 0.273563
1135.877930 0.257738
1135.239258 0.288223
1134.771484 0.256981
1134.125000 0.265017
1133.666016 0.273164
1133.011719 0.251635
1132.559570 0.255467
1131.897461 0.262085
1131.453125 0.261766
1130.783203 0.247309
1130.346680 0.275117
1129.668945 0.265460
1129.240234 0.265894
1128.553711 0.247189
1128.132813 0.262315
1127.439453 0.256930
1127.025391 0.264377
1126.324219 0.258268
1125.917969 0.256571
1125.208008 0.242811
1124.810547 0.257929
1124.092773 0.243451
1123.702148 0.247309
1122.976563 0.260877
1122.594727 0.260643
1121.859375 0.258716
1121.486328 0.249322
1120.743164 0.241875
1120.377930 0.257018
1119.625977 0.235526
1119.268555 0.247814
1118.508789 0.234770
1118.159180 0.234391
1117.391602 0.232617
1117.050781 0.247715
1116.273438 0.235354
1115.940430 0.242740
1115.155273 0.234598
1114.831055 0.237767
1114.037109 0.226164
1113.721680 0.221543
1112.918945 0.217036
1112.611328 0.213763
1111.799805 0.215588
1111.500977 0.212314
1110.680664 0.210652
1110.389648 0.205946
1109.561523 0.207811
1109.279297 0.222067
1108.441406 0.214035
1108.167969 0.220617
1107.321289 0.206316
1107.056641 0.209333
1106.201172 0.218808
1105.945313 0.212803
1105.081055 0.214574
1104.833984 0.216973
1103.959961 0.199895
1103.721680 0.216929
1102.838867 0.199846
1102.609375 0.204953
1101.717773 0.190051
1101.497070 0.204911
1100.595703 0.205316
1100.384766 0.198555
1099.473633 0.216398
1099.271484 0.204127
1098.351563 0.205910
1098.158203 0.208294
1097.229492 0.216291
1097.044922 0.195630
1096.106445 0.200941
1095.931641 0.206807
1094.983398 0.195331
1094.818359 0.214475
1093.860352 0.195978
1093.704102 0.200416
1092.737305 0.206351
1092.589844 0.191968
1091.613281 0.199354
1091.475586 0.189127
1090.489258 0.184027
1090.360352 0.193291
1089.364258 0.190924
1089.246094 0.188350
1088.240234 0.201288
1088.130859 0.191112
1087.115234 0.196381
1087.015625 0.209971
1085.989258 0.185926
1085.900391 0.187536
1084.864258 0.181718
1084.784180 0.202189
1083.738281 0.181673
1083.667969 0.193055
1082.612305 0.188560
1082.551758 0.210499
1081.486328 0.191979
1081.435547 0.197172
1080.359375 0.208561
1080.318359 0.194335
1079.232422 0.205738
1079.202148 0.189403
1078.105469 0.195991
1078.084961 0.201942
1076.977539 0.195942
1076.966797 0.191422
1075.849609 0.199354
1075.849609 0.210940
1074.731445 0.202073
1074.721680 0.199025
1073.613281 0.222086
1073.593750 0.192002
1072.495117 0.217189
1072.464844 0.196151
1071.376953 0.203090
1071.335938 0.216443
1070.257813 0.224679
1070.207031 0.214315
1069.138672 0.225331
1069.077148 0.218409
1068.019531 0.223890
1067.948242 0.227337
1066.900391 0.213384
1066.817383 0.205865
1065.781250 0.217523
1065.687500 0.214101
1064.661133 0.207720
1064.556641 0.206452
1063.541016 0.223706
1063.425781 0.227800
1062.419922 0.231324
1062.294922 0.233954
1061.299805 0.223614
1061.163086 0.222856
1060.178711 0.225658
1060.032227 0.226939
1059.057617 0.234663
1058.899414 0.227571
1057.936523 0.236704
1057.767578 0.224756
1056.815430 0.228998
1056.634766 0.226767
1055.693359 0.226168
1055.501953 0.238425
1054.571289 0.223338
1054.369141 0.226653
1053.449219 0.226074
1053.235352 0.228662
1052.327148 0.214205
1052.101563 0.227228
1051.204102 0.231544
1050.967773 0.229924
1050.081055 0.228715
1049.833984 0.224360
1048.958008 0.207122
1048.699219 0.219487
1047.834961 0.218892
1047.564453 0.216680
1046.710938 0.209121
1046.428711 0.210436
1045.586914 0.216718
1045.293945 0.211758
1044.462891 0.207645
1044.158203 0.204143
1043.338867 0.212462
1043.021484 0.216461
1042.213867 0.222831
1041.885742 0.204727
1041.089844 0.218621
1040.749023 0.206735
1039.964844 0.201228
1039.612305 0.195010
1038.838867 0.206736
1038.474609 0.206630
1037.713867 0.202532
1037.337891 0.190107
1036.587891 0.206651
1036.200195 0.200350
1035.461914 0.214234
1035.061523 0.191382
1034.335938 0.201713
1033.923828 0.202306
1033.209961 0.191969
1032.785156 0.199512
1032.083008 0.211329
1031.646484 0.202888
1030.956055 0.211978
1030.506836 0.204892
1029.829102 0.202930
1029.367188 0.197989
1028.701172 0.205658
1028.227539 0.213006
1027.574219 0.212538
1027.087891 0.200627
1026.446289 0.192421
1025.947266 0.218374
1025.318359 0.212450
1024.806641 0.214896
1024.189453 0.215173
1023.666016 0.208683
1023.061523 0.199218
1022.524414 0.212050
1021.932617 0.201252
1021.382813 0.203789
1020.803711 0.217804
1020.241211 0.216727
1019.674805 0.213611
1019.098633 0.218038
1018.544922 0.210111
1017.957031 0.233699
1017.415039 0.219050
1016.813477 0.213827
1016.285156 0.213477
1015.670898 0.225383
1015.155273 0.232773
1014.527344 0.221911
1014.024414 0.231343
1013.383789 0.232776
1012.894531 0.235437
1012.240234 0.229986
1011.763672 0.223653
1011.095703 0.228562
1010.631836 0.238099
1009.951172 0.246238
1009.500977 0.253229
1008.806641 0.236627
1008.369141 0.233171
1007.662109 0.245429
1007.237305 0.240019
1006.516602 0.229690
1006.105469 0.242037
1005.371094 0.243939
1004.972656 0.242676
1004.224609 0.224802
1003.840820 0.252275
1003.079102 0.234960
1002.708008 0.245331
1001.932617 0.229452
1001.575195 0.238389
1000.785156 0.221905
1000.441406 0.223874
999.638672 0.212320
999.307617 0.219694
998.491211 0.227913
998.173828 0.216894
997.342773 0.214930
997.040039 0.227863
996.195313 0.202635
995.906250 0.226439
995.046875 0.216178
994.771484 0.207812
993.898438 0.217481
993.636719 0.229783
992.749023 0.202477
992.501953 0.217354
991.599609 0.212613
991.367188 0.220059
990.450195 0.206446
990.231445 0.208324
989.300781 0.212502
989.095703 0.215842
987.959961 0.211673
986.824219 0.219873
985.687500 0.223262
984.550781 0.223215
983.414063 0.229348
982.277344 0.216942
981.139648 0.233369
980.001953 0.227144
978.864258 0.225723
977.726563 0.239395
976.587891 0.231800
975.449219 0.236551
974.310547 0.218677
973.171875 0.226855
972.032227 0.226807
970.893555 0.227444
969.752930 0.228081
968.613281 0.222554
967.473633 0.240308
966.333008 0.249155
965.192383 0.234731
964.050781 0.245628
962.910156 0.242156
961.768555 0.229110
960.626953 0.222908
959.485352 0.232431
958.342773 0.216662
957.200195 0.221399
956.057617 0.232283
954.915039 0.212425
953.771484 0.213063
952.628906 0.215748
951.485352 0.206146
950.340820 0.206784
949.197266 0.204011
948.052734 0.207378
946.908203 0.210062
945.762695 0.205926
944.618164 0.212018
943.472656 0.206520
942.327148 0.216016
941.181641 0.205069
940.035156 0.212518
938.888672 0.195447
937.742188 0.198129
936.595703 0.200129
935.448242 0.210975
934.301758 0.219775
933.154297 0.211565
932.005859 0.214920
930.858398 0.199235
929.709961 0.211429
928.561523 0.218180
927.413086 0.219493
926.263672 0.225560
925.114258 0.211247
923.964844 0.221389
922.815430 0.232205
921.665039 0.227403
920.514648 0.233462
919.364258 0.215770
918.213867 0.218437
917.062500 0.231955
915.911133 0.201391
914.759766 0.210839
913.608398 0.197916
912.456055 0.217525
911.303711 0.201895
910.151367 0.212012
908.999023 0.224834
907.845703 0.222754
906.692383 0.227444
905.539063 0.215213
904.385742 0.228023
903.231445 0.211738
902.077148 0.220485
900.922852 0.233961
899.768555 0.230530
898.613281 0.237915
897.458008 0.238539
896.302734 0.248622
895.146484 0.251945
893.991211 0.249865
892.834961 0.259938
891.678711 0.262582
890.521484 0.290195
889.364258 0.309024
888.207031 0.324473
887.049805 0.345310
885.892578 0.347932
884.734375 0.382912
883.576172 0.372045
882.417969 0.351749
881.258789 0.340893
880.099609 0.340819
878.940430 0.331991
877.781250 0.323840
876.621094 0.305595
875.461914 0.302837
874.301758 0.283932
873.140625 0.286561
871.980469 0.271030
870.819336 0.268282
869.658203 0.252090
868.496094 0.270181
867.334961 0.265419
866.172852 0.266705
865.010742 0.257915
863.847656 0.244429
862.685547 0.261831
861.522461 0.264458
860.359375 0.259703
859.195313 0.251596
858.031250 0.252882
856.867188 0.254839
855.703125 0.236680
854.539063 0.245343
853.374023 0.250651
852.208984 0.237865
851.043945 0.237143
849.877930 0.255844
848.711914 0.241057
847.545898 0.255063
846.379883 0.246975
845.212891 0.264989
844.046875 0.248205
842.879883 0.252164
841.711914 0.262809
840.544922 0.272780
839.376953 0.286757
838.208008 0.303401
837.040039 0.358122
835.871094 0.360715
834.702148 0.473502
833.533203 0.539500
832.364258 0.660876
831.194336 0.766181
830.024414 0.904135
828.854492 1.000000
827.683594 0.951092
826.513672 0.918875
825.342773 0.872673
824.170898 0.743842
823.000000 0.678373
821.828125 0.621594
820.656250 0.535532
819.483398 0.474814
818.311523 0.455401
817.138672 0.405378
815.965820 0.372013
814.791992 0.344652
813.619141 0.326616
812.445313 0.311247
811.270508 0.299210
810.096680 0.296485
808.921875 0.288444
807.747070 0.279078
806.572266 0.259086
805.396484 0.280283
804.221680 0.262292
803.045898 0.248957
801.869141 0.262176
800.693359 0.250837
799.516602 0.253435
798.339844 0.260676
797.162109 0.262607
795.985352 0.253930
794.807617 0.263154
793.628906 0.253818
792.451172 0.255749
791.272461 0.274240
790.093750 0.257623
788.915039 0.272794
787.735352 0.272072
786.556641 0.281277
785.375977 0.273275
784.196289 0.277183
783.015625 0.261248
781.835938 0.253917
780.654297 0.243283
779.473633 0.247194
778.291992 0.257052
777.110352 0.254352
775.928711 0.236462
774.747070 0.244994
773.564453 0.240318
772.381836 0.234324
771.199219 0.228332
770.015625 0.217065
768.832031 0.245381
767.648438 0.237412
766.464844 0.243953
765.280273 0.255764
764.095703 0.257025
762.911133 0.283323
761.725586 0.270085
760.541016 0.297027
759.355469 0.324616
758.168945 0.329152
756.983398 0.361986
755.796875 0.354009
754.610352 0.354588
753.422852 0.317677
752.236328 0.315633
751.048828 0.296497
749.861328 0.300375
748.672852 0.296365
747.485352 0.296955
746.296875 0.290977
745.107422 0.283689
743.918945 0.280999
742.729492 0.265183
741.540039 0.270373
740.349609 0.253910
739.160156 0.240734
737.969727 0.233466
736.779297 0.243905
735.587891 0.252372
734.397461 0.237242
733.206055 0.248327
732.013672 0.236480
730.822266 0.228568
729.629883 0.254053
728.437500 0.237630
727.244141 0.232341
726.051758 0.234252
724.858398 0.220461
723.665039 0.246573
722.470703 0.221016
721.276367 0.234695
720.082031 0.228106
718.887695 0.234589
717.693359 0.230617
716.498047 0.254731
715.302734 0.223330
714.106445 0.247435
712.911133 0.248032
711.714844 0.250587
710.517578 0.250530
709.321289 0.249169
708.124023 0.238027
706.926758 0.243189
705.729492 0.247697
704.531250 0.252854
703.333008 0.267131
702.134766 0.261860
700.936523 0.274825
699.737305 0.265648
698.538086 0.270145
697.338867 0.287004
696.138672 0.264817
694.938477 0.272563
693.738281 0.282908
692.538086 0.267889
691.336914 0.294481
690.135742 0.289215
688.934570 0.302794
687.732422 0.278040
686.531250 0.294864
685.328125 0.298043
684.125977 0.286291
682.923828 0.288822
681.720703 0.290054
680.516602 0.279608
679.313477 0.297706
678.109375 0.304771
676.905273 0.284604
675.701172 0.289725
674.496094 0.297435
673.291992 0.282467
672.085938 0.305720
670.880859 0.314069
669.674805 0.286159
668.468750 0.311337
667.262695 0.307384
666.055664 0.295021
664.849609 0.293014
663.642578 0.280660
662.434570 0.292880
661.227539 0.274068
660.019531 0.270775
658.810547 0.278466
657.602539 0.269359
656.393555 0.288026
655.184570 0.284086
653.975586 0.291122
652.765625 0.274922
651.555664 0.292280
650.345703 0.298018
649.134766 0.287632
647.924805 0.292079
646.712891 0.283633
645.501953 0.273901
644.291016 0.288658
643.079102 0.296322
641.866211 0.289814
640.654297 0.279445
639.441406 0.280669
638.228516 0.269663
637.015625 0.275393
635.801758 0.291412
634.587891 0.288129
633.374023 0.274560
632.160156 0.281569
630.945313 0.286646
629.730469 0.279512
628.514648 0.289726
627.299805 0.283880
626.083984 0.280604
624.868164 0.295947
623.651367 0.277266
622.435547 0.284261
621.218750 0.288045
620.000977 0.307220
618.784180 0.291118
617.566406 0.289769
616.347656 0.287139
615.129883 0.316549
613.911133 0.297257
612.692383 0.275412
611.473633 0.283673
610.253906 0.290009
609.034180 0.261140
607.814453 0.263640
606.594727 0.267417
605.374023 0.268635
604.153320 0.269213
602.931641 0.269150
601.710938 0.246078
600.489258 0.276694
599.267578 0.263214
598.044922 0.258044
596.822266 0.261177
595.599609 0.252179
594.376953 0.254673
593.153320 0.245043
591.929688 0.260297
590.706055 0.245567
589.481445 0.248061
588.257813 0.256292
587.032227 0.256232
585.807617 0.251712
584.582031 0.238275
583.356445 0.245863
582.130859 0.250264
580.905273 0.241929
579.678711 0.243146
578.452148 0.256453
577.224609 0.229036
575.997070 0.247429
574.769531 0.256910
573.541992 0.247950
572.313477 0.245986
571.084961 0.249741
569.856445 0.257307
568.627930 0.262329
567.398438 0.245757
566.168945 0.245700
564.939453 0.243738
563.708984 0.236701
562.478516 0.249335
561.248047 0.251814
560.016602 0.249853
558.785156 0.250429
557.553711 0.246567
556.322266 0.255381
555.089844 0.255322
553.857422 0.268564
552.625000 0.256469
551.391602 0.256409
550.158203 0.244323
548.924805 0.260086
547.690430 0.253066
546.457031 0.257435
545.222656 0.259272
543.987305 0.253521
542.752930 0.260415
541.517578 0.256562
540.281250 0.259029
539.045898 0.246336
537.809570 0.252593
536.573242 0.256953
535.335938 0.248056
534.099609 0.260619
532.861328 0.258665
531.624023 0.254820
530.385742 0.250346
529.148438 0.240831
527.909180 0.254010
526.670898 0.267184
525.431641 0.260191
524.192383 0.245013
522.952148 0.283998
521.712891 0.271340
520.472656 0.263093
519.231445 0.276875
517.991211 0.261082
516.750000 0.262908
515.508789 0.272907
514.266602 0.260898
513.024414 0.272778
511.782227 0.263917
510.540039 0.267624
509.296875 0.285147
508.053711 0.256195
506.810547 0.278734
505.566406 0.284945
504.322266 0.275465
503.078125 0.287947
501.833008 0.287879
500.587891 0.287184
499.342773 0.284608
498.097656 0.272633
496.851563 0.296379
495.605469 0.283153
494.359375 0.296239
493.112305 0.272375
491.865234 0.294220
490.618164 0.294776
489.370117 0.290327
488.123047 0.297764
486.874023 0.296443
485.625977 0.301375
484.376953 0.316931
483.127930 0.326855
481.878906 0.320529
480.628906 0.351686
479.378906 0.340361
478.128906 0.345900
476.877930 0.353308
475.626953 0.371946
474.375977 0.371858
473.125000 0.369274
471.873047 0.367939
470.621094 0.384685
469.368164 0.402670
468.115234 0.424385
466.862305 0.439236
465.609375 0.468407
464.355469 0.481373
463.102539 0.526084
461.847656 0.544009
460.593750 0.619798
459.338867 0.670043
458.083984 0.731460
456.828125 0.795956
455.572266 0.839284
454.316406 0.851514
453.060547 0.855660
451.803711 0.790224
450.546875 0.711777
449.290039 0.637092
448.032227 0.581068
446.774414 0.535000
445.516602 0.485852
444.257813 0.477671
442.999023 0.440344
441.740234 0.427837
440.481445 0.399219
439.221680 0.409659
437.961914 0.420094
436.701172 0.402648
435.441406 0.419892
434.180664 0.448891
432.918945 0.454354
431.658203 0.456101
430.396484 0.473315
429.133789 0.462067
427.872070 0.472469
426.609375 0.450097
425.346680 0.429591
424.083008 0.420835
422.819336 0.435561
421.555664 0.423103
420.291016 0.432263
419.027344 0.434011
417.762695 0.433289
416.497070 0.441823
415.231445 0.439865
413.965820 0.466280
412.700195 0.477266
411.433594 0.488247
410.166992 0.485047
408.900391 0.496021
407.632813 0.506989
406.365234 0.493316
405.097656 0.515979
403.830078 0.544170
402.561523 0.547730
401.291992 0.586975
400.023438 0.567148
398.753906 0.598989
397.484375 0.611140
396.214844 0.649101
394.944336 0.653245
393.673828 0.659844
392.402344 0.692237
391.130859 0.693911
389.859375 0.721982
388.587891 0.738992
387.315430 0.749243
386.042969 0.760103
384.770508 0.758691
383.497070 0.795909
382.223633 0.760159
380.950195 0.797359
379.676758 0.769591
378.402344 0.762051
377.126953 0.776563
375.852539 0.759229
374.577148 0.766389
373.301758 0.763141
372.025391 0.766625
370.749023 0.738299
369.472656 0.733226
368.196289 0.749553
366.918945 0.743868
365.641602 0.722297
364.363281 0.735560
363.085938 0.727439
361.807617 0.722986
360.528320 0.712429
359.249023 0.713475
357.969727 0.710248
356.690430 0.697262
355.410156 0.701360
354.129883 0.711552
352.849609 0.716253
351.568359 0.720342
350.287109 0.689091
349.005859 0.701712
347.723633 0.710065
346.441406 0.677621
345.159180 0.662845
343.875977 0.638341
342.592773 0.651567
341.309570 0.632550
340.026367 0.625097
338.742188 0.612175
337.457031 0.601084
336.172852 0.607618
334.887695 0.574057
333.602539 0.558124
332.316406 0.560414
331.030273 0.534780
329.744141 0.547391
328.457031 0.550289
327.170898 0.544086
325.882813 0.526971
324.595703 0.507439
323.307617 0.533982
322.019531 0.533849
320.730469 0.519176
319.441406 0.525709
318.152344 0.515889
316.863281 0.519393
315.573242 0.516842
314.283203 0.517318
312.992188 0.528682
311.701172 0.531573
310.410156 0.547159
309.119141 0.552462
307.827148 0.543260
306.535156 0.568497
305.242188 0.590098
303.950195 0.583308
302.656250 0.588595
301.363281 0.584826
300.069336 0.599160
298.775391 0.604438
297.480469 0.651327
296.186523 0.636090
294.891602 0.658835
293.595703 0.689403
292.299805 0.713931
291.003906 0.770971
289.708008 0.823165
288.411133 0.842824
287.114258 0.905205
285.816406 0.956724
284.518555 1.038295
283.220703 1.075320
281.922852 1.123148
280.624023 1.193193
279.325195 1.179670
278.025391 1.271894
276.725586 1.328033
275.425781 1.374535
274.125977 1.465438
272.825195 1.517883
271.523438 1.575102
270.222656 1.594498
268.920898 1.701445
267.619141 1.786752
266.316406 1.840846
265.013672 1.944651
263.710938 1.936966
262.408203 2.018532
261.104492 2.016221
259.799805 2.093533
258.496094 2.160631
257.191406 2.160079
255.886719 2.266606
254.581055 2.259449
253.275391 2.317465
251.969727 2.328230
250.663086 2.416078
249.356445 2.438162
248.049805 2.479347
246.742188 2.539620
245.434570 2.546729
244.126953 2.551447
242.818359 2.571676
241.509766 2.553119
240.201172 2.499386
238.891602 2.505898
237.582031 2.476643
236.271484 2.422373
234.961914 2.414600
233.650391 2.380624
232.339844 2.361552
231.028320 2.356776
229.716797 2.318673
228.405273 2.315100
227.092773 2.268104
225.779297 2.240163
224.466797 2.216397
223.153320 2.176595
221.839844 2.113044
220.525391 2.087546
219.210938 2.101259
217.896484 2.053213
216.581055 2.014690
215.265625 1.968471
213.950195 1.954314
212.633789 1.932453
211.317383 1.876803
210.000977 1.819403
208.683594 1.770922
207.366211 1.727800
206.048828 1.716094
204.730469 1.667678
203.412109 1.693885
202.092773 1.623598
200.773438 1.587077
199.454102 1.565957
198.133789 1.590979
196.814453 1.535573
195.493164 1.498521
194.172852 1.527678
192.851563 1.542639
191.529297 1.494981
190.208008 1.493998
188.885742 1.524895
187.562500 1.544562
186.239258 1.543566
184.916016 1.602149
183.592773 1.601728
182.268555 1.612508
180.944336 1.675742
179.619141 1.674122
178.293945 1.737894
176.968750 1.786319
175.643555 1.874168
174.317383 1.919000
172.990234 1.960864
171.664063 2.036830
170.336914 2.060406
169.008789 2.111019
167.680664 2.133975
166.352539 2.105199
165.024414 2.166922
163.695313 2.159886
162.366211 2.166946
161.036133 2.149932
159.706055 2.192207
158.375977 2.203946
157.044922 2.197494
155.713867 2.216262
154.382813 2.277820
153.050781 2.290695
151.718750 2.337549
150.385742 2.404883
149.053711 2.471595
147.719727 2.499040
146.386719 2.559250
145.052734 2.622354
143.717773 2.624577
142.383789 2.742610
141.048828 2.753569
139.712891 2.775045
138.377930 2.840341
137.041016 2.909107
135.705078 2.910078
134.368164 2.959516
133.031250 2.917854
131.693359 2.964343
130.355469 2.930286
129.017578 2.918413
127.678711 2.900713
126.339844 2.849791
125.000977 2.879913
123.661133 2.769587
122.321289 2.798548
120.980469 2.750035
119.639648 2.705623
118.298828 2.720024
116.957031 2.713468
115.615234 2.698770
114.273438 2.716067
112.930664 2.743820
111.587891 2.671576
110.244141 2.703393
108.900391 2.648046
107.556641 2.590406
106.211914 2.550216
104.867188 2.392788
103.522461 2.256337
102.176758 2.028293
100.831055 1.813133
99.484375 1.592291
98.137695 1.345483
