3197.824219 0.002906
3197.119141 0.022278
3196.414063 0.017433
3195.708008 0.001937
3195.001953 0.008714
3194.296875 0.013552
3193.590820 0.013550
3192.884766 0.014516
3192.178711 0.017416
3191.472656 0.012576
3190.765625 0.015476
3190.059570 0.017408
3189.352539 0.014504
3188.646484 0.004834
3187.939453 0.015467
3187.232422 0.012565
3186.525391 0.008697
3185.818359 0.013527
3185.111328 0.018355
3184.404297 0.011591
3183.696289 0.004829
3182.989258 0.009656
3182.281250 0.015447
3181.573242 0.017375
3180.865234 0.015442
3180.157227 0.014475
3179.449219 0.011578
3178.741211 0.012541
3178.033203 0.017361
3177.324219 0.015430
3176.616211 0.011571
3175.907227 0.016389
3175.198242 0.013495
3174.489258 0.011565
3173.780273 0.011563
3173.071289 0.000963
3172.362305 0.015413
3171.652344 0.013484
3170.943359 0.015408
3170.233398 0.018294
3169.523438 0.010589
3168.814453 0.018288
3168.104492 0.008661
3167.394531 0.017320
3166.683594 0.017317
3165.973633 0.003848
3165.263672 0.014426
3164.552734 0.021155
3163.841797 0.014421
3163.130859 0.016342
3162.420898 0.016339
3161.709961 0.009610
3160.998047 0.015373
3160.287109 0.023055
3159.576172 0.008644
3158.864258 0.009603
3158.153320 0.022084
3157.441406 0.011520
3156.729492 0.015358
3156.017578 0.006718
3155.305664 0.015353
3154.593750 0.019188
3153.880859 0.019185
3153.168945 0.023977
3152.456055 0.021096
3151.744141 0.016299
3151.031250 0.015338
3150.318359 0.019169
3149.605469 0.014374
3148.892578 0.021079
3148.178711 0.012454
3147.465820 0.003831
3146.751953 0.022984
3146.039063 0.012448
3145.325195 0.014360
3144.611328 0.012443
3143.897461 0.019140
3143.183594 0.012439
3142.468750 0.013394
3141.754883 0.013392
3141.041016 0.011477
3140.326172 0.013387
3139.611328 0.015297
3138.896484 0.015295
3138.181641 0.015292
3137.466797 0.018156
3136.751953 0.013376
3136.037109 0.012419
3135.321289 0.016237
3134.605469 0.020054
3133.890625 0.014322
3133.174805 0.022911
3132.458984 0.017181
3131.743164 0.020041
3131.027344 0.017175
3130.310547 0.016218
3129.594727 0.012400
3128.877930 0.020981
3128.161133 0.006675
3127.445313 0.014300
3126.728516 0.019064
3126.010742 0.016202
3125.293945 0.016199
3124.577148 0.023818
3123.859375 0.010478
3123.142578 0.018095
3122.424805 0.013331
3121.707031 0.011425
3120.989258 0.018086
3120.271484 0.005710
3119.553711 0.019032
3118.835938 0.019980
3118.117188 0.016171
3117.399414 0.021875
3116.680664 0.012362
3115.961914 0.016163
3115.243164 0.015210
3114.524414 0.015207
3113.805664 0.019006
3113.086914 0.018052
3112.367188 0.020899
3111.648438 0.008548
3110.928711 0.019943
3110.208984 0.011394
3109.489258 0.022784
3108.769531 0.018983
3108.049805 0.016133
3107.329102 0.010437
3106.609375 0.018973
3105.888672 0.013279
3105.168945 0.013277
3104.448242 0.016119
3103.727539 0.017064
3103.006836 0.018009
3102.285156 0.016111
3101.564453 0.021793
3100.843750 0.016105
3100.122070 0.017997
3099.400391 0.020835
3098.678711 0.012309
3097.957031 0.017041
3097.235352 0.023664
3096.513672 0.018928
3095.791992 0.020817
3095.069336 0.011353
3094.346680 0.018918
3093.625000 0.024589
3092.902344 0.008510
3092.179688 0.025526
3091.457031 0.014179
3090.733398 0.017956
3090.010742 0.023623
3089.287109 0.026453
3088.564453 0.013224
3087.840820 0.016999
3087.117188 0.018885
3086.393555 0.025490
3085.669922 0.018878
3084.946289 0.022650
3084.221680 0.017928
3083.498047 0.026416
3082.773438 0.017922
3082.048828 0.016976
3081.324219 0.012258
3080.599609 0.016027
3079.875000 0.028278
3079.149414 0.029215
3078.424805 0.016019
3077.699219 0.026379
3076.974609 0.029200
3076.249023 0.016010
3075.523438 0.017891
3074.797852 0.025419
3074.071289 0.021649
3073.345703 0.032939
3072.619141 0.025405
3071.893555 0.029164
3071.166992 0.026337
3070.440430 0.014107
3069.713867 0.025388
3068.987305 0.021623
3068.259766 0.017859
3067.533203 0.014097
3066.805664 0.026309
3066.079102 0.022547
3065.351563 0.012211
3064.624023 0.021600
3063.896484 0.026291
3063.168945 0.020653
3062.440430 0.023465
3061.712891 0.019707
3060.984375 0.013136
3060.255859 0.016886
3059.527344 0.020635
3058.798828 0.019693
3058.070313 0.031879
3057.341797 0.015937
3056.613281 0.026244
3055.883789 0.015931
3055.154297 0.016865
3054.424805 0.017799
3053.695313 0.032781
3052.965820 0.019665
3052.236328 0.020598
3051.506836 0.024339
3050.776367 0.024335
3050.046875 0.017780
3049.316406 0.014034
3048.585938 0.018709
3047.855469 0.017770
3047.125000 0.025248
3046.393555 0.016829
3045.663086 0.008413
3044.931641 0.015888
3044.201172 0.017754
3043.469727 0.029897
3042.738281 0.014946
3042.006836 0.034555
3041.275391 0.016808
3040.542969 0.021473
3039.811523 0.025202
3039.079102 0.017732
3038.346680 0.036390
3037.614258 0.022390
3036.881836 0.018655
3036.149414 0.026112
3035.416992 0.013054
3034.683594 0.025171
3033.951172 0.027962
3033.217773 0.017706
3032.484375 0.011181
3031.750977 0.029810
3031.017578 0.028874
3030.284180 0.027006
3029.549805 0.020483
3028.816406 0.022342
3028.082031 0.026991
3027.347656 0.020472
3026.613281 0.026051
3025.878906 0.021395
3025.144531 0.026041
3024.410156 0.031616
3023.674805 0.014875
3022.939453 0.026027
3022.205078 0.030669
3021.469727 0.026018
3020.734375 0.028800
3019.999023 0.028795
3019.262695 0.025075
3018.527344 0.027856
3017.791016 0.027851
3017.054688 0.033415
3016.318359 0.025057
3015.582031 0.029691
3014.845703 0.033397
3014.109375 0.032463
3013.373047 0.031530
3012.635742 0.025961
3011.898438 0.029664
3011.161133 0.030585
3010.424805 0.028727
3009.686523 0.022236
3008.949219 0.026863
3008.211914 0.039825
3007.473633 0.027780
3006.736328 0.030552
3005.998047 0.039803
3005.259766 0.032392
3004.521484 0.031460
3003.782227 0.028679
3003.043945 0.028674
3002.305664 0.035142
3001.566406 0.032362
3000.827148 0.032356
3000.087891 0.038820
2999.348633 0.044357
2998.609375 0.040653
2997.870117 0.043417
2997.129883 0.036020
2996.389648 0.028626
2995.650391 0.033237
2994.910156 0.036000
2994.169922 0.037840
2993.429688 0.043369
2992.688477 0.040593
2991.948242 0.035974
2991.207031 0.035967
2990.465820 0.040571
2989.725586 0.046095
2988.983398 0.043321
2988.242188 0.049764
2987.500977 0.045148
2986.759766 0.052509
2986.017578 0.028552
2985.275391 0.046043
2984.533203 0.046956
2983.791016 0.049708
2983.048828 0.056142
2982.306641 0.040488
2981.563477 0.051521
2980.821289 0.051511
2980.078125 0.049662
2979.334961 0.049653
2978.591797 0.039531
2977.848633 0.057907
2977.105469 0.065248
2976.361328 0.070749
2975.618164 0.056037
2974.874023 0.061538
2974.129883 0.061526
2973.385742 0.062433
2972.641602 0.067929
2971.897461 0.059656
2971.152344 0.072492
2970.408203 0.067891
2969.663086 0.069713
2968.917969 0.082539
2968.172852 0.080690
2967.427734 0.080675
2966.682617 0.077910
2965.936523 0.074230
2965.191406 0.094373
2964.445313 0.104432
2963.699219 0.082431
2962.953125 0.098899
2962.207031 0.094302
2961.460938 0.094285
2960.713867 0.092436
2959.967773 0.099739
2959.220703 0.102465
2958.473633 0.115252
2957.726563 0.106999
2956.979492 0.112465
2956.232422 0.114273
2955.484375 0.100541
2954.737305 0.118799
2953.989258 0.123345
2953.241211 0.125148
2952.493164 0.134258
2951.745117 0.126928
2950.997070 0.131469
2950.248047 0.109536
2949.500000 0.125031
2948.750977 0.125919
2948.001953 0.135931
2947.252930 0.139554
2946.503906 0.132232
2945.754883 0.114883
2945.004883 0.123977
2944.255859 0.129423
2943.505859 0.128487
2942.755859 0.131196
2942.005859 0.128438
2941.255859 0.128414
2940.504883 0.122016
2939.754883 0.111068
2939.003906 0.124700
2938.252930 0.135597
2937.502930 0.111005
2936.750977 0.118261
2936.000000 0.115510
2935.249023 0.121854
2934.497070 0.116376
2933.746094 0.116353
2932.994141 0.120876
2932.242188 0.114492
2931.490234 0.103568
2930.738281 0.104457
2929.985352 0.104437
2929.233398 0.097153
2928.480469 0.107121
2927.727539 0.088948
2926.974609 0.096190
2926.221680 0.093450
2925.468750 0.093432
2924.715820 0.096135
2923.961914 0.081609
2923.208008 0.075247
2922.455078 0.076139
2921.701172 0.077937
2920.946289 0.100574
2920.192383 0.088778
2919.438477 0.087856
2918.683594 0.086028
2917.928711 0.098687
2917.173828 0.084184
2916.418945 0.066068
2915.664063 0.087772
2914.909180 0.083232
2914.153320 0.089547
2913.398438 0.093147
2912.642578 0.088609
2911.886719 0.084976
2911.130859 0.084960
2910.375000 0.074099
2909.619141 0.084927
2908.862305 0.093040
2908.105469 0.075863
2907.349609 0.080363
2906.592773 0.092987
2905.835938 0.089359
2905.078125 0.075805
2904.321289 0.082106
2903.563477 0.084797
2902.806641 0.082977
2902.048828 0.078452
2901.291016 0.082043
2900.533203 0.081126
2899.774414 0.079308
2899.016602 0.069381
2898.257813 0.077476
2897.500000 0.072057
2896.741211 0.084650
2895.982422 0.077431
2895.222656 0.079216
2894.463867 0.081001
2893.705078 0.086385
2892.945313 0.088167
2892.185547 0.082753
2891.425781 0.084536
2890.666016 0.079125
2889.906250 0.082705
2889.146484 0.067410
2888.385742 0.080876
2887.625000 0.084454
2886.864258 0.084438
2886.103516 0.076339
2885.342773 0.072732
2884.582031 0.071821
2883.821289 0.083475
2883.059570 0.087946
2882.297852 0.084340
2881.536133 0.079839
2880.774414 0.077132
2880.012695 0.078014
2879.250977 0.086965
2878.488281 0.070813
2877.726563 0.085138
2876.963867 0.077058
2876.201172 0.075251
2875.438477 0.092254
2874.674805 0.070744
2873.912109 0.091323
2873.149414 0.082354
2872.385742 0.073388
2871.622070 0.085006
2870.858398 0.073360
2870.094727 0.088551
2869.330078 0.084063
2868.566406 0.079576
2867.801758 0.078666
2867.038086 0.076863
2866.273438 0.078636
2865.508789 0.077727
2864.743164 0.076819
2863.978516 0.079483
2863.212891 0.077682
2862.448242 0.066954
2861.682617 0.070511
2860.916992 0.070497
2860.151367 0.071376
2859.384766 0.074038
2858.619141 0.081158
2857.852539 0.074009
2857.086914 0.087367
2856.320313 0.076654
2855.553711 0.088224
2854.786133 0.065932
2854.019531 0.082845
2853.251953 0.081047
2852.485352 0.077470
2851.717773 0.085467
2850.950195 0.077439
2850.182617 0.071195
2849.414063 0.083637
2848.646484 0.084511
2847.877930 0.080047
2847.110352 0.073807
2846.341797 0.072903
2845.573242 0.065778
2844.803711 0.073763
2844.035156 0.068418
2843.266602 0.088837
2842.497070 0.069279
2841.727539 0.072817
2840.958008 0.067476
2840.188477 0.069238
2839.418945 0.063012
2838.648438 0.066549
2837.878906 0.062987
2837.108398 0.065636
2836.337891 0.065623
2835.567383 0.054971
2834.795898 0.057619
2834.025391 0.081537
2833.254883 0.074432
2832.483398 0.062901
2831.711914 0.056688
2830.940430 0.060219
2830.168945 0.060207
2829.397461 0.068163
2828.625000 0.059299
2827.852539 0.060172
2827.081055 0.059275
2826.308594 0.058379
2825.536133 0.057483
2824.762695 0.067198
2823.990234 0.058345
2823.216797 0.054798
2822.444336 0.058322
2821.670898 0.062727
2820.897461 0.065365
2820.123047 0.049456
2819.349609 0.056510
2818.576172 0.060030
2817.801758 0.053839
2817.027344 0.043239
2816.252930 0.065288
2815.478516 0.054690
2814.704102 0.055561
2813.928711 0.059958
2813.154297 0.059065
2812.378906 0.066104
2811.603516 0.059042
2810.828125 0.056387
2810.052734 0.050209
2809.276367 0.059006
2808.500977 0.063397
2807.724609 0.058983
2806.948242 0.063372
2806.171875 0.052800
2805.395508 0.051030
2804.619141 0.069492
2803.841797 0.058045
2803.064453 0.052758
2802.288086 0.066813
2801.510742 0.064163
2800.733398 0.057120
2799.955078 0.056230
2799.177734 0.054462
2798.399414 0.063234
2797.621094 0.059709
2796.842773 0.061453
2796.064453 0.056174
2795.286133 0.052653
2794.507813 0.040359
2793.728516 0.061404
2792.950195 0.055253
2792.170898 0.071025
2791.391602 0.057861
2790.611328 0.055220
2789.832031 0.063095
2789.052734 0.052569
2788.272461 0.059566
2787.492188 0.063933
2786.711914 0.052538
2785.931641 0.073538
2785.151367 0.058644
2784.370117 0.049006
2783.588867 0.058620
2782.808594 0.056859
2782.027344 0.050725
2781.246094 0.058585
2780.463867 0.060322
2779.682617 0.056813
2778.900391 0.058550
2778.119141 0.054170
2777.336914 0.060273
2776.554688 0.055021
2775.771484 0.060249
2774.989258 0.048888
2774.206055 0.064589
2773.423828 0.060213
2772.640625 0.064563
2771.857422 0.059317
2771.074219 0.050583
2770.290039 0.054933
2769.506836 0.050563
2768.722656 0.056654
2767.938477 0.056643
2767.154297 0.063601
2766.370117 0.065331
2765.585938 0.050512
2764.800781 0.058339
2764.016602 0.051363
2763.231445 0.059186
2762.446289 0.050472
2761.661133 0.064382
2760.875000 0.050451
2760.089844 0.055659
2759.303711 0.073908
2758.518555 0.051290
2757.732422 0.064317
2756.945313 0.067780
2756.159180 0.057341
2755.373047 0.055592
2754.585938 0.068608
2753.798828 0.064252
2753.012695 0.050350
2752.224609 0.052075
2751.437500 0.055536
2750.650391 0.067671
2749.862305 0.052044
2749.074219 0.058971
2748.287109 0.057225
2747.499023 0.071083
2746.709961 0.064136
2745.921875 0.058923
2745.132813 0.048515
2744.344727 0.062364
2743.555664 0.064084
2742.766602 0.062339
2741.977539 0.058864
2741.187500 0.054525
2740.398438 0.055379
2739.608398 0.053637
2738.818359 0.064006
2738.028320 0.056210
2737.238281 0.055334
2736.448242 0.064831
2735.657227 0.062225
2734.866211 0.061349
2734.075195 0.064792
2733.284180 0.078598
2732.493164 0.044904
2731.702148 0.053528
2730.910156 0.056107
2730.119141 0.059548
2729.327148 0.056947
2728.535156 0.068150
2727.743164 0.059511
2726.950195 0.059499
2726.158203 0.058625
2725.365234 0.061199
2724.572266 0.056878
2723.779297 0.066344
2722.986328 0.062884
2722.193359 0.056843
2721.399414 0.055970
2720.606445 0.063707
2719.812500 0.066276
2719.018555 0.053354
2718.224609 0.067970
2717.430664 0.060214
2716.635742 0.060202
2715.840820 0.066208
2715.046875 0.058458
2714.251953 0.054148
2713.456055 0.067886
2712.661133 0.060999
2711.866211 0.060987
2711.070313 0.057539
2710.274414 0.069548
2709.478516 0.060949
2708.682617 0.062653
2707.886719 0.070363
2707.089844 0.065201
2706.293945 0.051464
2705.497070 0.063459
2704.700195 0.060874
2703.903320 0.062576
2703.105469 0.065134
2702.308594 0.060837
2701.510742 0.059111
2700.712891 0.065951
2699.915039 0.053949
2699.117188 0.064211
2698.319336 0.060774
2697.520508 0.071031
2696.722656 0.055615
2695.923828 0.060737
2695.125000 0.062435
2694.326172 0.052161
2693.526367 0.064119
2692.727539 0.063251
2691.927734 0.060674
2691.127930 0.060661
2690.328125 0.069191
2689.528320 0.063199
2688.728516 0.070870
2687.927734 0.064026
2687.126953 0.073401
2686.326172 0.074240
2685.525391 0.058867
2684.724609 0.058002
2683.923828 0.062254
2683.122070 0.058831
2682.321289 0.060524
2681.519531 0.064772
2680.717773 0.075836
2679.915039 0.072413
2679.113281 0.058770
2678.310547 0.070680
2677.508789 0.064705
2676.706055 0.054477
2675.903320 0.063827
2675.099609 0.059560
2674.296875 0.068905
2673.493164 0.062087
2672.690430 0.066325
2671.886719 0.067162
2671.083008 0.068848
2670.278320 0.065434
2669.474609 0.062022
2668.669922 0.072202
2667.865234 0.067941
2667.060547 0.066229
2666.255859 0.059424
2665.451172 0.061109
2664.646484 0.067884
2663.840820 0.062780
2663.035156 0.072097
2662.229492 0.072930
2661.423828 0.059349
2660.618164 0.065271
2659.811523 0.061020
2659.004883 0.058465
2658.199219 0.071160
2657.391602 0.059287
2656.584961 0.071977
2655.778320 0.059262
2655.033203 0.061077
2654.970703 0.068561
2654.227539 0.067863
2654.164063 0.071931
2653.421875 0.064459
2653.356445 0.070224
2652.616211 0.070385
2652.548828 0.069364
2651.810547 0.070374
2651.740234 0.076115
2651.004883 0.062733
2650.932617 0.076099
2650.198242 0.066113
2650.124023 0.071856
2649.392578 0.060170
2649.316406 0.084519
2648.585938 0.058466
2648.507813 0.061686
2647.779297 0.068622
2647.699219 0.068431
2646.972656 0.069458
2646.889648 0.069262
2646.166016 0.060978
2646.081055 0.070936
2645.359375 0.068589
2645.271484 0.075987
2644.552734 0.066885
2644.461914 0.059089
2643.745117 0.056716
2643.652344 0.070891
2642.938477 0.059245
2642.842773 0.073408
2642.130859 0.060082
2642.033203 0.065800
2641.323242 0.076994
2641.222656 0.059882
2640.515625 0.059216
2640.413086 0.063243
2639.708008 0.078660
2639.602539 0.069131
2638.899414 0.071036
2638.791992 0.067430
2638.091797 0.076944
2637.981445 0.069944
2637.283203 0.061714
2637.169922 0.064874
2636.475586 0.060858
2636.359375 0.068230
2635.666992 0.068454
2635.547852 0.071584
2634.858398 0.076893
2634.736328 0.070727
2634.049805 0.074346
2633.924805 0.079130
2633.241211 0.062508
2633.113281 0.068172
2632.431641 0.085301
2632.300781 0.068999
2631.623047 0.082753
2631.489258 0.072350
2630.813477 0.067542
2630.676758 0.068129
2630.003906 0.054869
2629.864258 0.076524
2629.194336 0.069208
2629.051758 0.073985
2628.384766 0.069197
2628.238281 0.069767
2627.575195 0.071716
2627.425781 0.071433
2626.765625 0.059894
2626.612305 0.066376
2625.955078 0.070849
2625.798828 0.071403
2625.145508 0.076740
2624.985352 0.071387
2624.334961 0.076728
2624.171875 0.078929
2623.524414 0.070814
2623.358398 0.070518
2622.713867 0.075016
2622.543945 0.077217
2621.903320 0.061520
2621.729492 0.076362
2621.092773 0.069936
2620.916016 0.071312
2620.281250 0.064869
2620.100586 0.085556
2619.469727 0.068228
2619.286133 0.060379
2618.659180 0.069058
2618.471680 0.066236
2617.847656 0.075783
2617.656250 0.078795
2617.036133 0.079138
2616.840820 0.074588
2616.224609 0.069024
2616.025391 0.076248
2615.412109 0.071537
2615.209961 0.078745
2614.600586 0.064793
2614.394531 0.076215
2613.788086 0.074878
2613.578125 0.075362
2612.976563 0.078230
2612.762695 0.077020
2612.164063 0.076535
2611.946289 0.071145
2611.351563 0.073999
2611.129883 0.063598
2610.539063 0.079031
2610.312500 0.081154
2609.726563 0.074815
2609.496094 0.071099
2608.913086 0.060514
2608.678711 0.077774
2608.100586 0.075630
2607.862305 0.066052
2607.287109 0.075617
2607.044922 0.071053
2606.473633 0.068884
2606.227539 0.064352
2605.660156 0.068872
2605.409180 0.071023
2604.846680 0.078098
2604.591797 0.080197
2604.033203 0.074726
2603.773438 0.076004
2603.218750 0.076393
2602.955078 0.072647
2602.405273 0.074701
2602.136719 0.078476
2601.590820 0.083919
2601.318359 0.080128
2600.776367 0.062090
2600.500000 0.072601
2599.961914 0.072146
2599.680664 0.067579
2599.147461 0.071295
2598.861328 0.089252
2598.333008 0.078830
2598.042969 0.085897
2597.518555 0.086363
2597.222656 0.071704
2596.703125 0.065390
2596.403320 0.072522
2595.888672 0.082143
2595.583984 0.070007
2595.073242 0.083805
2594.763672 0.073325
2594.257813 0.080439
2593.943359 0.076641
2593.442383 0.072885
2593.123047 0.070794
2592.625977 0.074548
2592.302734 0.074110
2591.810547 0.077047
2591.482422 0.072429
2590.994141 0.075360
2590.661133 0.080736
2590.178711 0.069486
2589.839844 0.074894
2589.362305 0.081193
2589.018555 0.072382
2588.545898 0.076994
2588.197266 0.079852
2587.729492 0.067777
2587.375977 0.074014
2586.913086 0.079478
2586.554688 0.077324
2586.095703 0.078628
2585.732422 0.075644
2585.279297 0.080287
2584.910156 0.088094
2584.461914 0.068566
2584.087891 0.074781
2583.644531 0.082767
2583.265625 0.074764
2582.827148 0.080245
2582.443359 0.075579
2582.009766 0.070202
2581.620117 0.080545
2581.192383 0.075204
2580.796875 0.079697
2580.374023 0.072684
2579.973633 0.072210
2579.556641 0.071001
2579.150391 0.068875
2578.738281 0.084351
2578.327148 0.077156
2577.919922 0.068471
2577.503906 0.069674
2577.101563 0.074303
2576.679688 0.077123
2576.283203 0.089315
2575.855469 0.073789
2575.464844 0.085962
2575.031250 0.067971
2574.645508 0.079271
2574.207031 0.083702
2573.827148 0.067577
2573.381836 0.070427
2573.007813 0.078409
2572.557617 0.083666
2572.188477 0.083400
2571.732422 0.074537
2571.369141 0.075047
2570.907227 0.080317
2570.549805 0.085872
2570.082031 0.073677
2569.730469 0.071686
2569.256836 0.081110
2568.910156 0.080841
2568.430664 0.070335
2568.090820 0.075827
2567.605469 0.081074
2567.270508 0.077480
2566.779297 0.076094
2566.450195 0.085796
2565.953125 0.080212
2565.629883 0.061629
2565.125977 0.061179
2564.809570 0.078272
2564.299805 0.072738
2563.989258 0.079091
2563.472656 0.081812
2563.167969 0.079909
2562.646484 0.076011
2562.346680 0.084889
2561.819336 0.090036
2561.526367 0.075721
2560.992188 0.067719
2560.705078 0.088187
2560.164063 0.089997
2559.883789 0.078189
2559.336914 0.076770
2559.061523 0.072354
2558.508789 0.076753
2558.240234 0.082319
2557.680664 0.070960
2557.417969 0.068172
2556.852539 0.080019
2556.596680 0.077303
2556.024414 0.084950
2555.774414 0.072303
2555.195313 0.080808
2554.952148 0.084754
2554.367188 0.067600
2554.129883 0.085570
2553.538086 0.073355
2553.307617 0.074756
2552.708984 0.077459
2552.484375 0.088031
2551.878906 0.076618
2551.662109 0.090506
2551.049805 0.076601
2550.838867 0.078867
2550.219727 0.077407
2550.015625 0.069723
2549.390625 0.074920
2549.192383 0.083819
2548.560547 0.081489
2548.369141 0.093761
2547.730469 0.079825
2547.544922 0.077152
2546.899414 0.078985
2546.721680 0.084603
2546.069336 0.083903
2545.897461 0.084588
2545.238281 0.078127
2545.074219 0.077940
2544.407227 0.082221
2544.250000 0.080413
2543.576172 0.070694
2543.425781 0.082056
2542.745117 0.084650
2542.600586 0.091986
2541.913086 0.082988
2541.776367 0.089484
2541.082031 0.080505
2540.951172 0.088640
2540.250000 0.082951
2540.126953 0.093593
2539.417969 0.073900
2539.301758 0.081155
2538.585938 0.073884
2538.476563 0.085280
2537.752930 0.087820
2537.651367 0.072848
2536.920898 0.092724
2536.826172 0.087733
2536.087891 0.088602
2536.000000 0.088544
2535.254883 0.083661
2535.174805 0.085219
2534.421875 0.084462
2534.348633 0.085204
2533.587891 0.072966
2533.522461 0.081880
2532.754883 0.093441
2532.696289 0.081038
2531.920898 0.081947
2531.870117 0.080197
2531.086914 0.082748
2531.042969 0.094235
2530.252930 0.081092
2530.216797 0.092565
2529.418945 0.076160
2529.389648 0.094201
2528.583984 0.076962
2528.562500 0.085096
2527.749023 0.078582
2527.735352 0.090863
2526.914063 0.075291
2526.908203 0.084240
2526.081055 0.090819
2526.079102 0.087527
2525.253906 0.076893
2525.244141 0.090814
2524.425781 0.088325
2524.409180 0.103179
2523.597656 0.072770
2523.573242 0.092432
2522.769531 0.075912
2522.737305 0.084198
2521.941406 0.082498
2521.901367 0.080910
2521.113281 0.096506
2521.065430 0.088246
2520.285156 0.091540
2520.228516 0.090677
2519.456055 0.096470
2519.392578 0.095557
2518.627930 0.090682
2518.555664 0.090636
2517.798828 0.083248
2517.718750 0.084085
2516.969727 0.092297
2516.881836 0.090595
2516.140625 0.082393
2516.043945 0.094655
2515.311523 0.082378
2515.207031 0.102792
2514.481445 0.087305
2514.369141 0.092165
2513.651367 0.081525
2513.531250 0.082359
2512.822266 0.084803
2512.693359 0.087232
2511.992188 0.084788
2511.855469 0.095363
2511.162109 0.093003
2511.016602 0.088008
2510.332031 0.095454
2510.177734 0.083914
2509.500977 0.081451
2509.338867 0.092855
2508.670898 0.081436
2508.500000 0.102606
2507.839844 0.089645
2507.661133 0.096070
2507.008789 0.090451
2506.821289 0.083838
2506.177734 0.081391
2505.982422 0.083819
2505.346680 0.095350
2505.142578 0.088682
2504.515625 0.090401
2504.302734 0.096796
2503.683594 0.084633
2503.461914 0.093521
2502.852539 0.084617
2502.622070 0.086996
2502.020508 0.090352
2501.781250 0.083724
2501.188477 0.099368
2500.940430 0.086143
2500.356445 0.092782
2500.099609 0.096686
2499.524414 0.092765
2499.258789 0.083667
2498.691406 0.087002
2498.416992 0.099891
2497.859375 0.103398
2497.576172 0.086877
2497.026367 0.096816
2496.734375 0.097410
2496.193359 0.087774
2495.892578 0.106315
2495.360352 0.090219
2495.050781 0.104668
2494.527344 0.084462
2494.208008 0.092476
2493.694336 0.086906
2493.365234 0.094077
2492.860352 0.090169
2492.523438 0.089190
2492.027344 0.081137
2491.680664 0.100519
2491.193359 0.101607
2490.836914 0.091581
2490.359375 0.082745
2489.994141 0.086698
2489.525391 0.091740
2489.150391 0.103690
2488.691406 0.094180
2488.306641 0.093948
2487.856445 0.093344
2487.462891 0.102833
2487.022461 0.096601
2486.619141 0.102809
2486.187500 0.096583
2485.775391 0.090646
2485.352539 0.098202
2484.930664 0.095480
2484.517578 0.091638
2484.085938 0.090604
2483.682617 0.092439
2483.241211 0.096245
2482.846680 0.094876
2482.396484 0.098648
2482.011719 0.103854
2481.550781 0.096200
2481.175781 0.096476
2480.706055 0.089712
2480.339844 0.092371
2479.860352 0.103428
2479.503906 0.082546
2479.014648 0.100173
2478.667969 0.111948
2478.168945 0.100150
2477.832031 0.093136
2477.322266 0.095282
2476.995117 0.092302
2476.476563 0.104947
2476.158203 0.101268
2475.629883 0.108151
2475.322266 0.098800
2474.783203 0.094409
2474.485352 0.093067
2473.936523 0.100034
2473.647461 0.088152
2473.088867 0.095172
2472.810547 0.080791
2472.242188 0.093537
2471.973633 0.091383
2471.394531 0.088678
2471.135742 0.098708
2470.546875 0.105583
2470.297852 0.092164
2469.698242 0.098306
2469.459961 0.112534
2468.850586 0.107951
2468.622070 0.092945
2468.001953 0.090207
2467.784180 0.091297
2467.153320 0.082939
2466.946289 0.101060
2466.304688 0.103850
2466.107422 0.091263
2465.456055 0.110265
2465.268555 0.108355
2464.607422 0.097365
2464.429688 0.096116
2463.757813 0.094928
2463.590820 0.104242
2462.908203 0.101341
2462.751953 0.099337
2462.058594 0.087647
2461.913086 0.102575
2461.208984 0.097274
2461.073242 0.097672
2460.358398 0.093232
2460.233398 0.106605
2459.508789 0.097228
2459.394531 0.093567
2458.658203 0.098009
2458.554688 0.097617
2457.807617 0.094773
2457.713867 0.091092
2456.956055 0.101978
2456.874023 0.105712
2456.105469 0.101954
2456.033203 0.101627
2455.253906 0.093101
2455.193359 0.092666
2454.402344 0.100301
2454.352539 0.091836
2453.550781 0.099475
2453.511719 0.098319
2452.699219 0.098650
2452.670898 0.090177
2451.846680 0.082590
2451.829102 0.086098
2450.995117 0.097802
2450.988281 0.100700
2450.146484 0.082551
2450.142578 0.098245
2449.304688 0.097756
2449.290039 0.107156
2448.462891 0.079308
2448.436523 0.094961
2447.621094 0.088452
2447.583984 0.104918
2446.779297 0.089246
2446.730469 0.090480
2445.937500 0.095719
2445.876953 0.091259
2445.094727 0.102189
2445.023438 0.087236
2444.251953 0.094872
2444.169922 0.089616
2443.409180 0.098907
2443.315430 0.096794
2442.566406 0.081056
2442.460938 0.101570
2441.723633 0.097249
2441.606445 0.087153
2440.879883 0.099661
2440.751953 0.092728
2440.037109 0.102073
2439.897461 0.097502
2439.193359 0.099623
2439.041992 0.099875
2438.349609 0.097175
2438.186523 0.088668
2437.505859 0.091489
2437.331055 0.082258
2436.662109 0.089043
2436.475586 0.087828
2435.817383 0.097929
2435.619141 0.091000
2434.973633 0.089009
2434.763672 0.092574
2434.128906 0.090610
2433.907227 0.086967
2433.284180 0.102726
2433.050781 0.074183
2432.439453 0.080063
2432.194336 0.077356
2431.593750 0.103496
2431.336914 0.082121
2430.749023 0.099434
2430.479492 0.098840
2429.903320 0.092141
2429.622070 0.091645
2429.058594 0.097780
2428.764648 0.094809
2428.212891 0.081602
2427.907227 0.094787
2427.367188 0.100166
2427.048828 0.082023
2426.520508 0.096916
2426.191406 0.090761
2425.674805 0.097705
2425.333008 0.089943
2424.828125 0.093650
2424.473633 0.096287
2423.982422 0.097668
2423.615234 0.093877
2423.135742 0.092807
2422.755859 0.089878
2422.289063 0.102472
2421.897461 0.094627
2421.441406 0.095192
2421.038086 0.100170
2420.594727 0.087108
2420.177734 0.092197
2419.747070 0.091123
2419.318359 0.092970
2418.900391 0.104006
2418.458008 0.088975
2418.052734 0.102374
2417.597656 0.096102
2417.205078 0.099936
2416.737305 0.090520
2416.356445 0.090248
2415.876953 0.092086
2415.508789 0.094258
2415.015625 0.100000
2414.660156 0.097462
2414.155273 0.092042
2413.812500 0.092612
2413.293945 0.089639
2412.963867 0.111113
2412.115234 0.080501
2411.266602 0.085315
2410.416992 0.087712
2409.568359 0.100568
2408.718750 0.096527
2407.869141 0.094900
2407.019531 0.097294
2406.169922 0.090843
2405.319336 0.092434
2404.469727 0.088398
2403.619141 0.098022
2402.768555 0.096397
2401.917969 0.090756
2401.066406 0.098768
2400.215820 0.079481
2399.364258 0.092309
2398.513672 0.097909
2397.662109 0.090668
2396.810547 0.100277
2395.958008 0.096248
2395.106445 0.095427
2394.253906 0.093805
2393.402344 0.092184
2392.549805 0.091365
2391.697266 0.096956
2390.843750 0.094534
2389.991211 0.098520
2389.137695 0.095298
2388.284180 0.094479
2387.430664 0.092859
2386.577148 0.089640
2385.723633 0.085621
2384.869141 0.093605
2384.015625 0.104785
2383.161133 0.093569
2382.306641 0.096749
2381.452148 0.093532
2380.597656 0.100708
2379.742188 0.090300
2378.886719 0.094277
2378.032227 0.089466
2377.176758 0.102226
2376.320313 0.103005
2375.464844 0.094203
2374.609375 0.087799
2373.752930 0.101349
2372.896484 0.094946
2372.040039 0.097321
2371.183594 0.098897
2370.326172 0.100472
2369.469727 0.103642
2368.612305 0.093259
2367.754883 0.094038
2366.897461 0.087645
2366.040039 0.103560
2365.182617 0.109912
2364.324219 0.101131
2363.465820 0.100315
2362.607422 0.105867
2361.749023 0.090726
2360.890625 0.098665
2360.031250 0.099441
2359.172852 0.108966
2358.313477 0.092245
2357.454102 0.106538
2356.594727 0.101748
2355.735352 0.101728
2354.875000 0.108064
2354.015625 0.096127
2353.155273 0.092931
2352.294922 0.092118
2351.434570 0.113537
2350.573242 0.110340
2349.712891 0.107143
2348.851563 0.108709
2347.990234 0.085681
2347.128906 0.094389
2346.267578 0.109438
2345.406250 0.108623
2344.543945 0.094333
2343.681641 0.103033
2342.819336 0.096673
2341.957031 0.100615
2341.094727 0.107724
2340.232422 0.103743
2339.369141 0.105306
2338.505859 0.109244
2337.642578 0.099725
2336.779297 0.107618
2335.916016 0.094938
2335.051758 0.098083
2334.188477 0.093319
2333.324219 0.098835
2332.459961 0.101187
2331.595703 0.105909
2330.730469 0.106679
2329.866211 0.103497
2329.000977 0.106636
2328.135742 0.096349
2327.270508 0.101067
2326.405273 0.099468
2325.540039 0.104184
2324.673828 0.104163
2323.807617 0.106510
2322.941406 0.107277
2322.075195 0.102524
2321.208984 0.113543
2320.341797 0.111943
2319.475586 0.119803
2318.608398 0.112687
2317.741211 0.115816
2316.874023 0.107916
2316.005859 0.113407
2315.138672 0.104723
2314.270508 0.107064
2313.402344 0.110978
2312.534180 0.105448
2311.666016 0.091265
2310.797852 0.096753
2309.928711 0.111676
2309.059570 0.111654
2308.190430 0.112418
2307.321289 0.099820
2306.452148 0.103729
2305.582031 0.118636
2304.712891 0.122540
2303.842773 0.114662
2302.972656 0.102076
2302.102539 0.103625
2301.231445 0.103604
2300.361328 0.109862
2299.490234 0.113762
2298.619141 0.109033
2297.748047 0.109796
2296.876953 0.116046
2296.004883 0.105048
2295.133789 0.097973
2294.261719 0.114409
2293.389648 0.112820
2292.517578 0.104964
2291.645508 0.113557
2290.772461 0.107271
2289.899414 0.109598
2289.027344 0.108793
2288.153320 0.118162
2287.280273 0.108749
2286.407227 0.116550
2285.533203 0.115744
2284.660156 0.100865
2283.786133 0.112571
2282.911133 0.114893
2282.037109 0.110181
2281.163086 0.109378
2280.288086 0.107793
2279.413086 0.117924
2278.538086 0.110092
2277.663086 0.108509
2276.787109 0.105365
2275.912109 0.110806
2275.036133 0.119366
2274.160156 0.102962
2273.284180 0.122437
2272.408203 0.099022
2271.531250 0.095104
2270.655273 0.122363
2269.778320 0.113767
2268.901367 0.108290
2268.024414 0.105932
2267.146484 0.101238
2266.269531 0.123018
2265.391602 0.105868
2264.513672 0.112851
2263.635742 0.101156
2262.757813 0.107359
2261.878906 0.108115
2261.000000 0.128313
2260.122070 0.115069
2259.243164 0.125151
2258.363281 0.107251
2257.484375 0.114999
2256.604492 0.108761
2255.725586 0.104079
2254.845703 0.113376
2253.965820 0.118012
2253.084961 0.104792
2252.205078 0.125724
2251.324219 0.107077
2250.443359 0.116364
2249.562500 0.114789
2248.681641 0.114766
2247.800781 0.113192
2246.918945 0.084489
2246.037109 0.118571
2245.155273 0.125520
2244.273438 0.112326
2243.391602 0.118499
2242.509766 0.113829
2241.626953 0.123096
2240.744141 0.113782
2239.861328 0.109890
2238.978516 0.117605
2238.094727 0.128410
2237.211914 0.116010
2236.328125 0.115986
2235.444336 0.106686
2234.560547 0.115939
2233.675781 0.121325
2232.791992 0.125163
2231.907227 0.108143
2231.022461 0.114300
2230.137695 0.110416
2229.252930 0.116569
2228.368164 0.115773
2227.482422 0.113435
2226.596680 0.124984
2225.710938 0.104904
2224.825195 0.117992
2223.938477 0.131847
2223.052734 0.123340
2222.166016 0.115608
2221.279297 0.117896
2220.392578 0.120183
2219.505859 0.120158
2218.618164 0.133995
2217.731445 0.124729
2216.843750 0.132401
2215.956055 0.114673
2215.068359 0.115418
2214.179688 0.123088
2213.291016 0.110756
2212.403320 0.113041
2211.514648 0.118399
2210.625977 0.126061
2209.736328 0.122962
2208.847656 0.126010
2207.958008 0.121375
2207.068359 0.123654
2206.178711 0.117485
2205.289063 0.120532
2204.398438 0.118205
2203.507813 0.121250
2202.618164 0.121992
2201.727539 0.121967
2200.835938 0.118874
2199.945313 0.117316
2199.053711 0.114992
2198.162109 0.118801
2197.270508 0.124140
2196.378906 0.107260
2195.487305 0.130983
2194.594727 0.118703
2193.703125 0.115616
2192.810547 0.117123
2191.917969 0.123222
2191.024414 0.120901
2190.131836 0.121641
2189.238281 0.127735
2188.344727 0.121590
2187.451172 0.120801
2186.557617 0.120776
2185.664063 0.120751
2184.769531 0.123018
2183.875000 0.116881
2182.980469 0.116857
2182.085938 0.113778
2181.191406 0.114518
2180.295898 0.132050
2179.400391 0.111418
2178.504883 0.119788
2177.609375 0.115949
2176.713867 0.125077
2175.817383 0.127339
2174.921875 0.127312
2174.025391 0.127286
2173.128906 0.103636
2172.231445 0.126471
2171.334961 0.116543
2170.437500 0.127180
2169.540039 0.125631
2168.642578 0.127127
2167.745117 0.130145
2166.847656 0.140010
2165.949219 0.116397
2165.050781 0.117134
2164.152344 0.130037
2163.253906 0.121647
2162.354492 0.137584
2161.456055 0.126916
2160.556641 0.128409
2159.657227 0.126863
2158.757813 0.126837
2157.858398 0.131366
2156.958008 0.126784
2156.057617 0.124480
2155.157227 0.118383
2154.256836 0.136568
2153.356445 0.122127
2152.456055 0.122860
2151.554688 0.122076
2150.653320 0.125841
2149.751953 0.134909
2148.850586 0.116695
2147.948242 0.116671
2147.045898 0.134825
2146.144531 0.126467
2145.242188 0.141583
2144.338867 0.124143
2143.436523 0.131685
2142.533203 0.113498
2141.629883 0.136169
2140.726563 0.134627
2139.823242 0.133843
2138.919922 0.146667
2138.015625 0.134543
2137.111328 0.125446
2136.207031 0.135242
2135.302734 0.132192
2134.398438 0.140472
2133.493164 0.135912
2132.588867 0.141168
2131.683594 0.126043
2130.778320 0.124507
2129.872070 0.133535
2128.966797 0.128227
2128.060547 0.137249
2127.154297 0.131942
2126.248047 0.134176
2125.341797 0.129626
2124.434570 0.128092
2123.527344 0.143131
2122.620117 0.129544
2121.712891 0.124999
2120.805664 0.139277
2119.897461 0.133226
2118.990234 0.139970
2118.082031 0.136179
2117.173828 0.130133
2116.265625 0.142890
2115.356445 0.132333
2114.447266 0.136816
2113.539063 0.145054
2112.628906 0.123233
2111.719727 0.129968
2110.810547 0.135949
2109.900391 0.134419
2108.990234 0.137393
2108.080078 0.136614
2107.169922 0.138086
2106.258789 0.129053
2105.348633 0.127525
2104.437500 0.159748
2103.526367 0.134969
2102.615234 0.128194
2101.703125 0.149153
2100.791992 0.146124
2099.879883 0.134855
2098.967773 0.133328
2098.055664 0.140789
2097.142578 0.141508
2096.230469 0.142975
2095.317383 0.132467
2094.404297 0.128697
2093.490234 0.134655
2092.577148 0.139862
2091.663086 0.148805
2090.750000 0.148773
2089.835938 0.149489
2088.920898 0.140490
2088.006836 0.136724
2087.091797 0.141924
2086.177734 0.146375
2085.262695 0.145597
2084.346680 0.143326
2083.431641 0.133593
2082.515625 0.130580
2081.600586 0.145473
2080.684570 0.133508
2079.767578 0.138699
2078.851563 0.142397
2077.934570 0.136404
2077.017578 0.138610
2076.100586 0.126660
2075.183594 0.139296
2074.266602 0.148203
2073.348633 0.145193
2072.430664 0.136973
2071.512695 0.155551
2070.594727 0.138403
2069.676758 0.148045
2068.757813 0.145038
2067.838867 0.142032
2066.919922 0.133080
2066.000977 0.153121
2065.082031 0.144170
2064.162109 0.145625
2063.242188 0.141137
2062.322266 0.143335
2061.402344 0.152957
2060.481445 0.146985
2059.561523 0.149922
2058.640625 0.146922
2057.719727 0.146890
2056.798828 0.153534
2055.876953 0.135704
2054.956055 0.149020
2054.034180 0.143058
2053.112305 0.147473
2052.189453 0.145960
2051.267578 0.151113
2050.344727 0.144416
2049.421875 0.147346
2048.499023 0.147314
2047.576172 0.166526
2046.652344 0.147251
2045.729492 0.148699
2044.805664 0.150146
2043.881836 0.142719
2042.957031 0.149342
2042.033203 0.147092
2041.108398 0.148538
2040.183594 0.155155
2039.258789 0.148474
2038.333984 0.146964
2037.408203 0.142502
2036.483398 0.152806
2035.557617 0.140965
2034.630859 0.146837
2033.705078 0.139428
2032.778320 0.154887
2031.852539 0.137893
2030.925781 0.143154
2030.818359 0.159243
2029.999023 0.142416
2029.892578 0.151837
2029.071289 0.149770
2028.965820 0.142224
2028.144531 0.161547
2028.040039 0.145141
2027.216797 0.144557
2027.113281 0.156895
2026.289063 0.148219
2026.186523 0.157597
2025.361328 0.148194
2025.260742 0.163453
2024.432617 0.161438
2024.333008 0.139862
2023.503906 0.149618
2023.406250 0.156758
2022.576172 0.173173
2022.479492 0.139065
2021.647461 0.164302
2021.551758 0.154483
2020.717773 0.149541
2020.624023 0.161068
2019.789063 0.158354
2019.696289 0.155886
2018.859375 0.159800
2018.768555 0.158793
2017.929688 0.146520
2017.840820 0.161698
2017.000000 0.162690
2016.913086 0.155784
2016.070313 0.150150
2015.984375 0.154281
2015.139648 0.167050
2015.055664 0.174079
2014.209961 0.159663
2014.126953 0.152745
2013.279297 0.160372
2013.198242 0.160787
2012.348633 0.152253
2012.269531 0.164422
2011.416992 0.165464
2011.340820 0.146040
2010.486328 0.177935
2010.411133 0.159948
2009.554688 0.149969
2009.482422 0.152578
2008.623047 0.160234
2008.552734 0.156211
2007.691406 0.165350
2007.623047 0.162043
2006.759766 0.152096
2006.692383 0.162007
2005.827148 0.165293
2005.762695 0.159773
2004.894531 0.156451
2004.833008 0.156074
2003.961914 0.164502
2003.902344 0.153842
2003.029297 0.179893
2002.971680 0.171387
2002.096680 0.158572
2002.041016 0.154507
2001.163086 0.157810
2001.110352 0.149349
2000.229492 0.166589
2000.178711 0.140532
1999.295898 0.154820
1999.248047 0.147819
1998.362305 0.164331
1998.316406 0.160224
1997.427734 0.152566
1997.384766 0.147754
1996.494141 0.168674
1996.453125 0.153572
1995.559570 0.169377
1995.521484 0.171086
1994.625000 0.156885
1994.589844 0.154236
1993.689453 0.165653
1993.657227 0.155663
1992.754883 0.159762
1992.724609 0.149784
1991.819336 0.175121
1991.792969 0.177509
1990.883789 0.169229
1990.860352 0.140223
1989.948242 0.147958
1989.926758 0.165018
1989.012695 0.172100
1988.994141 0.164252
1988.076172 0.174998
1988.061523 0.172244
1987.139648 0.163254
1987.127930 0.160531
1986.203125 0.169081
1986.194336 0.167061
1985.266602 0.180761
1985.260742 0.161189
1984.330078 0.166827
1984.327148 0.168446
1983.392578 0.141192
1983.392578 0.162576
1982.458984 0.168962
1982.455078 0.155980
1981.524414 0.168932
1981.517578 0.171978
1980.589844 0.152085
1980.580078 0.148626
1979.655273 0.176914
1979.641602 0.175543
1978.720703 0.168112
1978.703125 0.167494
1977.786133 0.168082
1977.765625 0.170369
1976.850586 0.173898
1976.826172 0.167420
1975.915039 0.167292
1975.887695 0.151372
1974.979492 0.158498
1974.948242 0.168073
1974.043945 0.162851
1974.009766 0.173128
1973.108398 0.167203
1973.070313 0.165816
1972.172852 0.164253
1972.130859 0.162871
1971.236328 0.162034
1971.190430 0.174466
1970.299805 0.164925
1970.250000 0.171520
1969.363281 0.175110
1969.310547 0.171482
1968.426758 0.174349
1968.370117 0.164906
1967.490234 0.164836
1967.428711 0.167048
1966.553711 0.174287
1966.488281 0.174272
1965.616211 0.170610
1965.546875 0.174233
1964.678711 0.185888
1964.605469 0.171291
1963.741211 0.182940
1963.664063 0.163996
1962.803711 0.163232
1962.722656 0.172666
1961.866211 0.161745
1961.780273 0.158846
1960.928711 0.161716
1960.837891 0.180565
1959.990234 0.170427
1959.895508 0.181975
1959.051758 0.176950
1958.953125 0.158015
1958.113281 0.162357
1958.010742 0.165226
1957.174805 0.176159
1957.067383 0.176057
1956.236328 0.178310
1956.124023 0.165877
1955.296875 0.176823
1955.180664 0.181047
1954.357422 0.181884
1954.237305 0.171595
1953.418945 0.165121
1953.292969 0.176623
1952.479492 0.188364
1952.349609 0.177307
1951.539063 0.195601
1951.405273 0.183056
1950.599609 0.186842
1950.460938 0.173611
1949.660156 0.175905
1949.515625 0.190929
1948.719727 0.164245
1948.571289 0.179317
1947.779297 0.183834
1947.625977 0.170602
1946.838867 0.170724
1946.680664 0.189355
1945.898438 0.169966
1945.735352 0.181364
1944.957031 0.180829
1944.789063 0.187103
1944.016602 0.194592
1943.842773 0.171171
1943.075195 0.196008
1942.896484 0.163912
1942.133789 0.169843
1941.950195 0.173260
1941.192383 0.186503
1941.003906 0.159508
1940.250977 0.190822
1940.056641 0.175347
1939.308594 0.193689
1939.110352 0.173864
1938.366211 0.177698
1938.163086 0.181759
1937.424805 0.184917
1937.215820 0.173786
1936.482422 0.182708
1936.267578 0.170863
1935.539063 0.190648
1935.319336 0.178032
1934.596680 0.163072
1934.372070 0.178712
1933.654297 0.193477
1933.422852 0.188038
1932.710938 0.191993
1932.474609 0.172869
1931.767578 0.170227
1931.526367 0.180752
1930.824219 0.193371
1930.577148 0.182871
1929.880859 0.169440
1929.627930 0.176351
1928.936523 0.186784
1928.678711 0.198620
1927.993164 0.188198
1927.728516 0.176990
1927.048828 0.183097
1926.779297 0.189898
1926.104492 0.190299
1925.829102 0.166123
1925.160156 0.177242
1924.878906 0.181903
1924.215820 0.203249
1923.928711 0.194800
1923.270508 0.192364
1922.977539 0.186132
1922.326172 0.190882
1922.026367 0.181779
1921.380859 0.187232
1921.075195 0.196104
1920.435547 0.179247
1920.124023 0.186005
1919.490234 0.175601
1919.172852 0.178783
1918.543945 0.178459
1918.220703 0.198124
1917.598633 0.192873
1917.268555 0.184443
1916.652344 0.164670
1916.316406 0.201621
1915.706055 0.190635
1915.364258 0.190098
1914.759766 0.183380
1914.411133 0.179296
1913.813477 0.197783
1913.458984 0.183558
1912.866211 0.174652
1912.505859 0.184233
1911.919922 0.186886
1911.552734 0.178457
1910.972656 0.191180
1910.598633 0.174117
1910.025391 0.186096
1909.645508 0.176226
1909.078125 0.180292
1908.691406 0.180483
1908.129883 0.192516
1907.737305 0.193331
1907.182617 0.193201
1906.782227 0.192570
1906.234375 0.183795
1905.828125 0.186085
1905.286133 0.198173
1904.873047 0.188904
1904.337891 0.174360
1903.917969 0.176700
1903.389648 0.180090
1902.962891 0.179520
1902.440430 0.194461
1902.006836 0.195925
1901.492188 0.187224
1901.051758 0.177293
1900.542969 0.190789
1900.095703 0.174393
1899.593750 0.190753
1899.139648 0.187930
1898.644531 0.183521
1898.183594 0.187172
1897.695313 0.200036
1897.226563 0.190700
1896.745117 0.189927
1896.269531 0.174947
1895.794922 0.188452
1895.312500 0.191326
1894.844727 0.186979
1894.355469 0.186286
1893.894531 0.194853
1893.398438 0.167690
1892.944336 0.190503
1892.440430 0.180493
1891.994141 0.194061
1891.482422 0.171892
1891.042969 0.193306
1890.524414 0.199663
1890.091797 0.195425
1889.566406 0.180368
1889.140625 0.183895
1888.607422 0.188879
1888.189453 0.193197
1887.648438 0.185985
1887.238281 0.203931
1886.689453 0.189504
1886.286133 0.196714
1885.730469 0.179489
1885.334961 0.196677
1884.770508 0.187992
1884.382813 0.179416
1883.811523 0.204323
1883.430664 0.183687
1882.851563 0.192888
1882.477539 0.210913
1881.891602 0.204940
1881.525391 0.199397
1880.930664 0.187818
1880.572266 0.205813
1879.970703 0.206268
1879.619141 0.195020
1879.009766 0.202664
1878.666016 0.177779
1878.048828 0.181289
1877.712891 0.191362
1877.086914 0.198305
1876.759766 0.192043
1876.125977 0.196127
1875.805664 0.214216
1875.164063 0.193240
1874.852539 0.186239
1874.202148 0.201718
1873.898438 0.185488
1873.240234 0.183208
1872.943359 0.185453
1872.277344 0.197365
1871.989258 0.202599
1871.315430 0.178154
1871.035156 0.185382
1870.352539 0.196563
1870.080078 0.204669
1869.389648 0.195098
1869.125000 0.215362
1868.425781 0.178739
1868.169922 0.190999
1867.462891 0.198552
1867.214844 0.191678
1866.499023 0.193543
1866.258789 0.210949
1865.535156 0.194916
1865.303711 0.189460
1864.570313 0.175029
1864.347656 0.202291
1863.606445 0.178530
1863.391602 0.208684
1862.641602 0.190529
1862.435547 0.187923
1861.676758 0.207479
1861.479492 0.200746
1860.711914 0.192136
1860.522461 0.193271
1859.746094 0.208525
1859.565430 0.194642
1858.781250 0.187779
1858.608398 0.179736
1857.815430 0.188457
1857.651367 0.205162
1856.849609 0.198413
1856.694336 0.188139
1855.882813 0.201229
1855.736328 0.204358
1854.916992 0.199764
1854.779297 0.194413
1853.950195 0.196159
1853.821289 0.195074
1852.983398 0.203253
1852.863281 0.208454
1852.015625 0.202501
1851.905273 0.206992
1851.048828 0.201036
1850.946289 0.195642
1850.081055 0.221667
1849.988281 0.189241
1849.113281 0.210223
1849.029297 0.196962
1848.145508 0.198783
1848.070313 0.212443
1847.176758 0.194470
1847.111328 0.195458
1846.208008 0.210101
1846.151367 0.205288
1845.239258 0.205789
1845.192383 0.189723
1844.270508 0.197206
1844.232422 0.196729
1843.301758 0.203574
1843.272461 0.190338
1842.332031 0.206381
1842.312500 0.212141
1841.362305 0.189976
1841.352539 0.207863
1840.392578 0.199188
1840.391602 0.194429
1839.430664 0.209818
1839.422852 0.223259
1838.470703 0.211911
1838.452148 0.209828
1837.508789 0.203338
1837.481445 0.202034
1836.547852 0.227467
1836.510742 0.218173
1835.586914 0.213920
1835.540039 0.234304
1834.625000 0.218852
1834.568359 0.206814
1833.663086 0.228756
1833.597656 0.221534
1832.701172 0.214506
1832.625000 0.215856
1831.739258 0.214464
1831.653320 0.223537
1830.777344 0.225073
1830.681641 0.212239
1829.814453 0.214381
1829.708984 0.224133
1828.851563 0.220017
1828.736328 0.224782
1827.888672 0.206492
1827.763672 0.216301
1826.925781 0.222060
1826.790039 0.215547
1825.962891 0.216342
1825.817383 0.216899
1824.999023 0.223392
1824.843750 0.209830
1824.035156 0.221930
1823.869141 0.228021
1823.071289 0.206291
1822.895508 0.220952
1822.107422 0.229640
1821.920898 0.211081
1821.143555 0.234556
1820.947266 0.213835
1820.178711 0.206879
1819.971680 0.211681
1819.214844 0.231631
1818.997070 0.209528
1818.250000 0.224504
1818.021484 0.206675
1817.285156 0.215255
1817.046875 0.201022
1816.319336 0.221584
1816.070313 0.214278
1815.354492 0.195353
1815.094727 0.226128
1814.388672 0.226451
1814.119141 0.219774
1813.422852 0.220747
1813.142578 0.190332
1812.457031 0.208678
1812.166016 0.215471
1811.491211 0.205101
1811.188477 0.195835
1810.525391 0.221324
1810.211914 0.220261
1809.558594 0.198658
1809.234375 0.219509
1808.591797 0.204981
1808.256836 0.205478
1807.625000 0.219781
1807.279297 0.218005
1806.658203 0.222564
1806.300781 0.208173
1805.690430 0.215456
1805.322266 0.223487
1804.723633 0.218945
1804.343750 0.213658
1803.755859 0.220315
1803.365234 0.215002
1802.788086 0.223095
1802.386719 0.219835
1801.820313 0.238580
1801.407227 0.219084
1800.851563 0.234299
1800.427734 0.229494
1799.883789 0.235664
1799.448242 0.218280
1798.915039 0.215160
1798.467773 0.207769
1797.946289 0.232045
1797.488281 0.220962
1796.977539 0.202382
1796.507813 0.222302
1796.007813 0.237594
1795.527344 0.212494
1795.039063 0.224154
1794.545898 0.217317
1794.069336 0.210720
1793.564453 0.224228
1793.099609 0.230407
1792.583008 0.224173
1792.129883 0.241633
1791.601563 0.222030
1791.160156 0.242994
1790.620117 0.213626
1790.189453 0.233791
1789.637695 0.221226
1789.218750 0.243602
1788.655273 0.221867
1788.248047 0.244962
1787.672852 0.228766
1787.277344 0.247025
1786.690430 0.229405
1786.306641 0.232199
1785.707031 0.224484
1785.334961 0.237781
1784.723633 0.222345
1784.364258 0.223667
1783.740234 0.234099
1783.392578 0.222920
1782.756836 0.221541
1782.420898 0.224282
1781.772461 0.222181
1781.448242 0.241108
1780.788086 0.244338
1780.476563 0.236140
1779.803711 0.224847
1779.503906 0.241012
1778.819336 0.237974
1778.531250 0.245179
1777.833984 0.224043
1777.558594 0.242321
1776.848633 0.225374
1776.585938 0.228930
1775.863281 0.216999
1775.612305 0.239416
1774.877930 0.244670
1774.638672 0.249196
1773.891602 0.232137
1773.666016 0.234408
1772.905273 0.218916
1772.691406 0.246992
1771.918945 0.229251
1771.717773 0.233614
1770.931641 0.241984
1770.744141 0.241658
1769.945313 0.246143
1769.769531 0.242291
1768.958008 0.255209
1768.794922 0.233233
1767.970703 0.247447
1767.820313 0.238711
1766.982422 0.250201
1766.845703 0.237960
1765.995117 0.264165
1765.870117 0.234443
1765.006836 0.240994
1764.894531 0.236459
1764.018555 0.242347
1763.919922 0.233635
1763.029297 0.257004
1762.944336 0.241869
1762.041016 0.231048
1761.967773 0.243191
1761.051758 0.242902
1760.992188 0.238986
1760.062500 0.238654
1760.015625 0.238236
1759.072266 0.244904
1759.039063 0.229892
1758.083008 0.255349
1758.062500 0.244328
1757.092773 0.243407
1757.085938 0.228397
1756.108398 0.249652
1756.101563 0.222821
1755.131836 0.250301
1755.111328 0.233110
1754.154297 0.253047
1754.120117 0.230983
1753.176758 0.248104
1753.128906 0.238508
1752.198242 0.235477
1751.220703 0.250799
1750.242188 0.247256
1749.263672 0.249302
1748.285156 0.266706
1747.306641 0.253390
1746.327148 0.252641
1745.348633 0.246310
1744.369141 0.266492
1743.389648 0.266438
1742.409180 0.249649
1741.429688 0.261451
1740.449219 0.243274
1739.468750 0.252285
1738.488281 0.239693
1737.507813 0.247307
1736.526367 0.245168
1735.544922 0.273669
1734.563477 0.254120
1733.582031 0.261725
1732.600586 0.253321
1731.618164 0.268578
1730.636719 0.261567
1729.654297 0.256645
1728.671875 0.249640
1727.688477 0.255151
1726.706055 0.253014
1725.722656 0.258523
1724.739258 0.262639
1723.755859 0.256334
1722.771484 0.286147
1721.788086 0.252064
1720.803711 0.268675
1719.819336 0.263067
1718.834961 0.269260
1717.850586 0.261573
1716.865234 0.271925
1715.879883 0.276031
1714.894531 0.282909
1713.909180 0.280079
1712.923828 0.272398
1711.937500 0.285509
1710.951172 0.282679
1709.964844 0.275695
1708.978516 0.279102
1707.991211 0.252733
1707.004883 0.281757
1706.017578 0.274778
1705.030273 0.282334
1704.042969 0.287120
1703.054688 0.291903
1702.066406 0.291152
1701.078125 0.271733
1700.089844 0.279973
1699.101563 0.297194
1698.113281 0.292296
1697.124023 0.290855
1696.134766 0.303229
1695.145508 0.301095
1694.155273 0.282391
1693.166016 0.300972
1692.175781 0.279515
1691.185547 0.281528
1690.195313 0.284920
1689.205078 0.281413
1688.213867 0.293768
1687.222656 0.270266
1686.231445 0.304677
1685.240234 0.285317
1684.249023 0.294216
1683.256836 0.301734
1682.264648 0.309248
1681.272461 0.294035
1680.280273 0.296040
1679.287109 0.291161
1678.294922 0.293166
1677.301758 0.278657
1676.308594 0.313682
1675.315430 0.312242
1674.321289 0.294988
1673.327148 0.296302
1672.333008 0.311362
1671.338867 0.301678
1670.344727 0.297493
1669.349609 0.300866
1668.355469 0.325528
1667.360352 0.302802
1666.365234 0.313037
1665.369141 0.306109
1664.374023 0.304674
1663.377930 0.323820
1662.381836 0.288086
1661.384766 0.336031
1660.388672 0.307850
1659.391602 0.319440
1658.395508 0.323486
1657.397461 0.306289
1656.400391 0.306226
1655.403320 0.312327
1654.405273 0.325958
1653.407227 0.310144
1652.409180 0.348412
1651.411133 0.320965
1650.412109 0.306530
1649.413086 0.322884
1648.414063 0.342652
1647.415039 0.313861
1646.416016 0.304909
1645.416016 0.338337
1644.416016 0.316399
1643.416016 0.330682
1642.416016 0.327881
1641.415039 0.325764
1640.415039 0.323648
1639.414063 0.322898
1638.413086 0.332386
1637.411133 0.352788
1636.410156 0.335659
1635.408203 0.339000
1634.406250 0.330746
1633.404297 0.336131
1632.402344 0.331290
1631.399414 0.333947
1630.396484 0.344098
1629.393555 0.347432
1628.390625 0.356214
1627.387695 0.347969
1626.383789 0.345173
1625.379883 0.343740
1624.375977 0.338904
1623.372070 0.349039
1622.367188 0.352368
1621.362305 0.339372
1620.357422 0.353580
1619.352539 0.342629
1618.347656 0.345277
1617.341797 0.356077
1616.335938 0.354644
1615.330078 0.360004
1614.324219 0.342272
1613.318359 0.379543
1612.311523 0.352990
1611.304688 0.357666
1610.297852 0.346056
1609.291016 0.381261
1608.283203 0.362868
1607.275391 0.356011
1606.267578 0.354580
1605.259766 0.367385
1604.251953 0.381539
1603.243164 0.344194
1602.234375 0.365799
1601.225586 0.363013
1600.216797 0.362937
1599.207031 0.349321
1598.198242 0.360077
1597.188477 0.357971
1596.178711 0.358573
1595.167969 0.344969
1594.158203 0.348954
1593.147461 0.357670
1592.136719 0.358947
1591.125977 0.352789
1590.114258 0.359472
1589.103516 0.351289
1588.091797 0.330953
1587.080078 0.351141
1586.067383 0.357144
1585.055664 0.362468
1584.042969 0.365091
1583.030273 0.357592
1582.017578 0.341328
1581.003906 0.368232
1579.991211 0.341858
1578.977539 0.337741
1577.963867 0.348454
1576.949219 0.324795
1575.935547 0.353022
1574.920898 0.334761
1573.906250 0.319202
1572.891602 0.347412
1571.876953 0.329837
1570.861328 0.327076
1569.845703 0.331716
1568.830078 0.324919
1567.814453 0.318125
1566.797852 0.334868
1565.782227 0.334797
1564.765625 0.318595
1563.749023 0.341375
1562.731445 0.331897
1561.714844 0.323766
1560.697266 0.337129
1559.679688 0.313557
1558.662109 0.332287
1557.643555 0.328861
1556.625000 0.351605
1555.607422 0.338113
1554.587891 0.331334
1553.569336 0.331934
1552.549805 0.335216
1551.531250 0.341848
1550.511719 0.353167
1549.491211 0.332322
1548.471680 0.328232
1547.451172 0.326153
1546.430664 0.326084
1545.410156 0.346098
1544.389648 0.335984
1543.368164 0.332567
1542.346680 0.343200
1541.325195 0.325737
1540.303711 0.335698
1539.282227 0.339638
1538.259766 0.314165
1537.237305 0.324791
1536.214844 0.316036
1535.191406 0.333337
1534.168945 0.333265
1533.145508 0.319172
1532.122070 0.337129
1531.098633 0.316366
1530.074219 0.332314
1529.050781 0.327572
1528.026367 0.324834
1527.000977 0.336102
1525.976563 0.329363
1524.951172 0.338624
1523.926758 0.338552
1522.901367 0.333149
1521.875000 0.317756
1520.849609 0.319686
1519.823242 0.336264
1518.796875 0.334861
1517.770508 0.330796
1516.743164 0.339376
1515.716797 0.333315
1514.689453 0.327922
1513.662109 0.347802
1512.634766 0.341744
1511.606445 0.335688
1510.578125 0.338274
1509.549805 0.337537
1508.521484 0.342115
1507.493164 0.348019
1506.463867 0.337984
1505.434570 0.330609
1504.405273 0.326555
1503.375977 0.323167
1502.345703 0.325088
1501.315430 0.336294
1500.285156 0.344843
1499.254883 0.339464
1498.223633 0.319505
1497.193359 0.317448
1496.162109 0.317380
1495.130859 0.336522
1494.098633 0.342411
1493.067383 0.339688
1492.035156 0.343587
1491.002930 0.309757
1489.969727 0.344762
1488.937500 0.349980
1487.904297 0.339322
1486.871094 0.326022
1485.837891 0.337192
1484.803711 0.338441
1483.770508 0.330437
1482.736328 0.336313
1481.702148 0.309816
1480.666992 0.321637
1479.632813 0.326850
1478.597656 0.319518
1477.562500 0.326709
1476.527344 0.328618
1475.491211 0.343061
1474.455078 0.329795
1473.418945 0.331042
1472.382813 0.343497
1471.346680 0.338149
1470.309570 0.332804
1469.272461 0.328778
1468.235352 0.342541
1467.198242 0.335222
1466.160156 0.348318
1465.122070 0.337051
1464.083984 0.346192
1463.045898 0.350723
1462.006836 0.344068
1460.968750 0.354517
1459.929688 0.344576
1458.889648 0.361595
1457.850586 0.355601
1456.810547 0.346980
1455.771484 0.352161
1454.730469 0.359967
1453.690430 0.365142
1452.649414 0.351931
1451.609375 0.372204
1450.568359 0.361622
1449.526367 0.356950
1448.485352 0.359496
1447.443359 0.365321
1446.401367 0.353438
1445.359375 0.348116
1444.316406 0.338209
1443.274414 0.361070
1442.231445 0.355095
1441.188477 0.360258
1440.144531 0.367383
1439.101563 0.356827
1438.057617 0.375732
1437.013672 0.389393
1435.968750 0.374259
1434.924805 0.394456
1433.879883 0.390445
1432.834961 0.402130
1431.790039 0.420346
1430.744141 0.413718
1429.698242 0.419508
1428.653320 0.443588
1427.606445 0.429775
1426.560547 0.436864
1425.513672 0.459618
1424.466797 0.434061
1423.419922 0.435271
1422.373047 0.438438
1421.325195 0.419425
1420.277344 0.426507
1419.229492 0.420545
1418.181641 0.398941
1417.132813 0.417753
1416.084961 0.417010
1415.036133 0.415615
1413.986328 0.394683
1412.937500 0.417386
1411.887695 0.429663
1410.837891 0.416551
1409.788086 0.410603
1408.738281 0.392947
1407.687500 0.409122
1406.636719 0.407731
1405.585938 0.408291
1404.534180 0.416651
1403.483398 0.404862
1402.431641 0.407371
1401.379883 0.396239
1400.327148 0.402645
1399.275391 0.381779
1398.222656 0.386888
1397.169922 0.397187
1396.117188 0.375687
1395.063477 0.378199
1394.009766 0.392383
1392.956055 0.398781
1391.902344 0.381189
1390.848633 0.390827
1389.793945 0.384260
1388.739258 0.389358
1387.684570 0.402874
1386.628906 0.396956
1385.574219 0.406580
1384.518555 0.392249
1383.462891 0.415459
1382.406250 0.417308
1381.350586 0.402338
1380.293945 0.424883
1379.237305 0.425436
1378.179688 0.438269
1377.123047 0.397457
1376.065430 0.402538
1375.007813 0.429579
1373.949219 0.411400
1372.891602 0.433263
1371.833008 0.426711
1370.774414 0.414353
1369.715820 0.425230
1368.656250 0.399331
1367.596680 0.407626
1366.537109 0.408825
1365.477539 0.399064
1364.417969 0.399619
1363.357422 0.404686
1362.296875 0.378181
1361.236328 0.387114
1360.174805 0.378012
1359.113281 0.392092
1358.052734 0.377199
1356.990234 0.393847
1355.928711 0.388612
1354.866211 0.389168
1353.803711 0.391654
1352.741211 0.379350
1351.678711 0.379265
1350.615234 0.393962
1349.551758 0.381023
1348.488281 0.381580
1347.424805 0.418745
1346.360352 0.392967
1345.295898 0.399298
1344.231445 0.393432
1343.166992 0.403611
1342.101563 0.402879
1341.036133 0.397016
1339.970703 0.394362
1338.905273 0.394273
1337.838867 0.401235
1336.772461 0.406912
1335.706055 0.401055
1334.639648 0.420820
1333.572266 0.417524
1332.504883 0.405266
1331.437500 0.412855
1330.370117 0.439000
1329.302734 0.437621
1328.234375 0.429847
1327.166016 0.397775
1326.096680 0.424538
1325.028320 0.409741
1323.958984 0.423708
1322.889648 0.408917
1321.820313 0.433737
1320.750000 0.405539
1319.679688 0.416940
1318.609375 0.411739
1317.539063 0.417390
1316.468750 0.400068
1315.397461 0.418477
1314.326172 0.392233
1313.254883 0.386406
1312.182617 0.401618
1311.142578 0.393879
1311.110352 0.383525
1310.069336 0.391878
1310.038086 0.419839
1308.997070 0.385419
1308.965820 0.400655
1307.923828 0.393611
1307.892578 0.390393
1306.851563 0.380787
1306.820313 0.387777
1305.778320 0.382610
1305.747070 0.393437
1304.704102 0.393980
1304.672852 0.396549
1303.630859 0.359528
1303.599609 0.384386
1302.557617 0.382349
1302.525391 0.379227
1301.483398 0.377174
1301.451172 0.372161
1300.409180 0.365642
1300.376953 0.368278
1299.334961 0.370645
1299.301758 0.367576
1298.259766 0.369290
1298.227539 0.359879
1297.185547 0.367299
1297.152344 0.371257
1296.110352 0.372462
1296.076172 0.389452
1295.035156 0.362227
1295.000977 0.371578
1293.959961 0.351995
1293.924805 0.379114
1292.883789 0.358919
1292.848633 0.371409
1291.808594 0.369017
1291.772461 0.375133
1290.732422 0.371490
1290.695313 0.376316
1289.656250 0.398089
1289.618164 0.376231
1288.580078 0.385321
1288.541016 0.385025
1287.502930 0.394771
1287.463867 0.390010
1286.426758 0.404852
1286.386719 0.383581
1285.349609 0.400972
1285.308594 0.395537
1284.272461 0.412951
1284.230469 0.415092
1283.195313 0.399557
1283.152344 0.395356
1282.118164 0.384266
1282.073242 0.395899
1281.040039 0.374686
1280.994141 0.376177
1279.961914 0.368913
1279.915039 0.392553
1278.883789 0.393562
1278.835938 0.372840
1277.805664 0.389688
1277.755859 0.365160
1276.727539 0.356040
1276.676758 0.352422
1275.648438 0.370543
1275.596680 0.352341
1274.569336 0.353376
1274.515625 0.370601
1273.490234 0.359643
1273.435547 0.357238
1272.411133 0.357045
1272.354492 0.351467
1271.332031 0.347485
1271.273438 0.357706
1270.251953 0.355015
1270.191406 0.355728
1269.171875 0.358113
1269.110352 0.356910
1268.091797 0.359312
1268.028320 0.355565
1267.011719 0.345332
1266.946289 0.341592
1265.931641 0.350327
1265.864258 0.355401
1264.850586 0.345204
1264.781250 0.358475
1263.769531 0.341348
1263.698242 0.338202
1262.688477 0.354557
1262.615234 0.347586
1261.607422 0.345013
1261.532227 0.341199
1260.526367 0.363270
1260.448242 0.354362
1259.444336 0.340463
1259.364258 0.336629
1258.362305 0.347979
1258.280273 0.354829
1257.280273 0.362437
1257.196289 0.351597
1256.198242 0.344693
1256.111328 0.341436
1255.115234 0.352203
1255.026367 0.357103
1254.033203 0.359710
1253.941406 0.334352
1252.950195 0.335667
1252.856445 0.344977
1251.867188 0.356422
1251.770508 0.352450
1250.783203 0.346264
1250.684570 0.347963
1249.700195 0.351244
1249.598633 0.332785
1248.616211 0.353701
1248.511719 0.340884
1247.532227 0.345440
1247.425781 0.364071
1246.448242 0.342224
1246.338867 0.348270
1245.364258 0.332708
1245.250977 0.365159
1244.279297 0.344616
1244.164063 0.336798
1243.195313 0.356519
1243.076172 0.348028
1242.110352 0.350155
1241.988281 0.355484
1241.024414 0.340644
1240.900391 0.347867
1239.939453 0.327360
1239.812500 0.340253
1238.853516 0.360657
1238.723633 0.343312
1237.768555 0.344228
1237.634766 0.345742
1236.682617 0.337242
1236.544922 0.344407
1235.595703 0.352905
1235.456055 0.342445
1234.509766 0.340888
1234.366211 0.356788
1233.422852 0.360318
1233.276367 0.345421
1232.336914 0.346418
1232.186523 0.333432
1231.250000 0.349496
1231.095703 0.349020
1230.162109 0.363256
1230.004883 0.337035
1229.075195 0.341195
1228.914063 0.336957
1227.987305 0.336733
1227.823242 0.326860
1226.899414 0.343578
1226.731445 0.344312
1225.811523 0.355445
1225.639648 0.342354
1224.723633 0.337797
1224.547852 0.331637
1223.634766 0.340244
1223.456055 0.342820
1222.546875 0.325116
1222.363281 0.331482
1221.458008 0.345135
1221.270508 0.361418
1220.368164 0.357617
1220.177734 0.337578
1219.279297 0.363822
1219.084961 0.336875
1218.189453 0.358108
1217.991211 0.338670
1217.100586 0.342991
1216.897461 0.352335
1216.010742 0.337910
1215.803711 0.351003
1214.919922 0.345367
1214.708984 0.372151
1213.830078 0.364102
1213.614258 0.325868
1212.739258 0.363405
1212.519531 0.360118
1211.648438 0.352687
1211.424805 0.363153
1210.557617 0.384561
1210.329102 0.383655
1209.466797 0.374469
1209.234375 0.379822
1208.375977 0.370014
1208.138672 0.366015
1207.284180 0.361180
1207.041992 0.358449
1206.192383 0.364866
1205.946289 0.357118
1205.100586 0.346650
1204.849609 0.357657
1204.007813 0.355967
1203.752930 0.365671
1202.916016 0.355273
1202.655273 0.351884
1201.823242 0.378343
1201.558594 0.341216
1200.730469 0.350135
1200.460938 0.356698
1199.637695 0.360694
1199.362305 0.347901
1198.543945 0.350625
1198.264648 0.362130
1197.451172 0.356806
1197.166016 0.373864
1196.357422 0.362985
1196.067383 0.366312
1195.263672 0.373533
1194.968750 0.360008
1194.168945 0.361595
1193.870117 0.387896
1193.075195 0.383379
1192.770508 0.378483
1191.980469 0.405779
1191.670898 0.374665
1190.885742 0.377614
1190.570313 0.386379
1189.791016 0.350707
1189.470703 0.361446
1188.696289 0.380587
1188.370117 0.367569
1187.600586 0.341838
1187.269531 0.365620
1186.504883 0.359858
1186.167969 0.384772
1185.409180 0.364777
1185.067383 0.362965
1184.313477 0.346003
1183.965820 0.359777
1183.216797 0.342196
1182.864258 0.331165
1182.121094 0.335897
1181.761719 0.341626
1181.024414 0.343309
1180.659180 0.346504
1179.927734 0.325177
1179.556641 0.332168
1178.830078 0.330719
1178.454102 0.312263
1177.733398 0.330654
1177.351563 0.340063
1176.635742 0.334948
1176.248047 0.344936
1175.538086 0.326790
1175.144531 0.323804
1174.440430 0.342907
1174.040039 0.324965
1173.341797 0.318574
1172.936523 0.321174
1172.243164 0.327843
1171.832031 0.314911
1171.145508 0.325291
1170.727539 0.322877
1170.045898 0.320253
1169.622070 0.315379
1168.947266 0.312729
1168.517578 0.308503
1167.848633 0.313911
1167.412109 0.317701
1166.749023 0.314471
1166.306641 0.312063
1165.649414 0.331186
1165.200195 0.315078
1164.549805 0.300680
1164.093750 0.297091
1163.449219 0.311801
1162.987305 0.298872
1162.348633 0.308635
1161.880859 0.294479
1161.249023 0.315404
1160.773438 0.315394
1160.147461 0.294236
1159.666016 0.298657
1159.046875 0.311556
1158.558594 0.323879
1157.946289 0.313356
1157.451172 0.310233
1156.844727 0.303989
1156.342773 0.298443
1155.743164 0.292144
1155.234375 0.317482
1154.641602 0.290846
1154.125977 0.302614
1153.539063 0.313109
1153.017578 0.316713
1152.436523 0.318006
1151.908203 0.312941
1151.334961 0.303689
1150.798828 0.305475
1150.231445 0.301150
1149.689453 0.309711
1149.128906 0.301090
1148.579102 0.283167
1148.026367 0.293598
1147.468750 0.286176
1146.922852 0.293540
1146.358398 0.283646
1145.819336 0.295958
1145.248047 0.330943
1144.715820 0.294662
1144.136719 0.303804
1143.611328 0.311314
1143.025391 0.311108
1142.506836 0.296401
1141.914063 0.314107
1141.403320 0.311809
1140.801758 0.301740
1140.297852 0.314840
1139.689453 0.304739
1139.193359 0.316014
1138.577148 0.307122
1138.088867 0.307295
1137.464844 0.299065
1136.983398 0.305379
1136.351563 0.293467
1135.877930 0.296666
1135.239258 0.316106
1134.771484 0.287955
1134.125000 0.308052
1133.666016 0.299636
1133.011719 0.306137
1132.559570 0.309460
1131.897461 0.314037
1131.453125 0.317426
1130.783203 0.312734
1130.346680 0.300692
1129.668945 0.294879
1129.240234 0.295693
1128.553711 0.316872
1128.132813 0.311064
1127.439453 0.290447
1127.025391 0.302363
1126.324219 0.292827
1125.917969 0.294282
1125.208008 0.295818
1124.810547 0.292990
1124.092773 0.302481
1123.702148 0.299714
1122.976563 0.306693
1122.594727 0.306437
1121.859375 0.298050
1121.486328 0.309458
1120.743164 0.292470
1120.377930 0.302616
1119.625977 0.309527
1119.268555 0.287766
1118.508789 0.296609
1118.159180 0.307423
1117.391602 0.301428
1117.050781 0.311057
1116.273438 0.297686
1115.940430 0.306684
1115.155273 0.290891
1114.831055 0.305391
1114.037109 0.293875
1113.721680 0.302867
1112.918945 0.295025
1112.611328 0.292959
1111.799805 0.291289
1111.500977 0.300899
1110.680664 0.297322
1110.389648 0.282997
1109.561523 0.295418
1109.279297 0.292782
1108.441406 0.286193
1108.167969 0.286573
1107.321289 0.297104
1107.056641 0.272989
1106.201172 0.294591
1105.945313 0.293834
1105.081055 0.307324
1104.833984 0.281483
1103.959961 0.270671
1103.721680 0.286342
1102.838867 0.276090
1102.609375 0.292427
1101.717773 0.294302
1101.497070 0.279469
1100.595703 0.291793
1100.384766 0.289238
1099.473633 0.280149
1099.271484 0.288566
1098.351563 0.285560
1098.158203 0.287280
1097.229492 0.294012
1097.044922 0.284767
1096.106445 0.281768
1095.931641 0.272437
1094.983398 0.292042
1094.818359 0.262566
1093.860352 0.277371
1093.704102 0.298700
1092.737305 0.285816
1092.589844 0.279017
1091.613281 0.268115
1091.475586 0.254436
1090.489258 0.282636
1090.360352 0.264805
1089.364258 0.290466
1089.246094 0.274557
1088.240234 0.286749
1088.130859 0.269599
1087.115234 0.280604
1087.015625 0.260968
1085.989258 0.278106
1085.900391 0.276226
1084.864258 0.281679
1084.784180 0.258412
1083.738281 0.282823
1083.667969 0.280399
1082.612305 0.277899
1082.551758 0.271773
1081.486328 0.260238
1081.435547 0.281509
1080.359375 0.272909
1080.318359 0.266767
1079.232422 0.286180
1079.202148 0.283229
1078.105469 0.266105
1078.084961 0.260542
1076.977539 0.262403
1076.966797 0.264769
1075.849609 0.293842
1075.849609 0.286113
1074.731445 0.267118
1074.721680 0.266495
1073.613281 0.267051
1073.593750 0.278051
1072.495117 0.276671
1072.464844 0.269441
1071.376953 0.260834
1071.335938 0.269339
1070.257813 0.265666
1070.207031 0.254749
1069.138672 0.283930
1069.077148 0.269204
1068.019531 0.274714
1067.948242 0.273976
1066.900391 0.269165
1066.817383 0.258186
1065.781250 0.273381
1065.687500 0.274443
1064.661133 0.275765
1064.556641 0.271957
1063.541016 0.268999
1063.425781 0.283368
1062.419922 0.264675
1062.294922 0.288130
1061.299805 0.274376
1061.163086 0.264506
1060.178711 0.260299
1060.032227 0.265043
1059.057617 0.268778
1058.899414 0.271012
1057.936523 0.285175
1057.767578 0.274565
1056.815430 0.277806
1056.634766 0.275099
1055.693359 0.254603
1055.501953 0.283474
1054.571289 0.263076
1054.369141 0.273754
1053.449219 0.291029
1053.235352 0.262834
1052.327148 0.261141
1052.101563 0.274219
1051.204102 0.278737
1050.967773 0.284995
1050.081055 0.266510
1049.833984 0.276490
1048.958008 0.271321
1048.699219 0.280034
1047.834961 0.274915
1047.564453 0.284780
1046.710938 0.291276
1046.428711 0.271465
1045.586914 0.279057
1045.293945 0.290051
1044.462891 0.286293
1044.158203 0.283962
1043.338867 0.294742
1043.021484 0.277274
1042.213867 0.284352
1041.885742 0.282014
1041.089844 0.281256
1040.749023 0.301781
1039.964844 0.283627
1039.612305 0.280068
1038.838867 0.297534
1038.474609 0.269782
1037.713867 0.295651
1037.337891 0.276321
1036.587891 0.284057
1036.200195 0.262439
1035.461914 0.279751
1035.061523 0.287588
1034.335938 0.291220
1033.923828 0.286915
1033.209961 0.277208
1032.785156 0.292243
1032.083008 0.304441
1031.646484 0.296368
1030.956055 0.295283
1030.506836 0.294493
1029.829102 0.281279
1029.367188 0.292019
1028.701172 0.287887
1028.227539 0.288348
1027.574219 0.301158
1027.087891 0.295466
1026.446289 0.295037
1025.947266 0.279812
1025.318359 0.296793
1024.806641 0.277344
1024.189453 0.287647
1023.666016 0.298832
1023.061523 0.291220
1022.524414 0.283788
1021.932617 0.287528
1021.382813 0.285511
1020.803711 0.297151
1020.241211 0.282446
1019.674805 0.289828
1019.098633 0.274596
1018.544922 0.290372
1017.957031 0.287684
1017.415039 0.284264
1016.813477 0.294187
1016.285156 0.284809
1015.670898 0.291122
1015.155273 0.296841
1014.527344 0.288059
1014.024414 0.271997
1013.383789 0.290973
1012.894531 0.285235
1012.240234 0.287911
1011.763672 0.286383
1011.095703 0.299183
1010.631836 0.300217
1009.951172 0.290748
1009.500977 0.289887
1008.806641 0.294254
1008.369141 0.304921
1007.662109 0.290597
1007.237305 0.293991
1006.516602 0.298874
1006.105469 0.301172
1005.371094 0.272555
1004.972656 0.287834
1004.224609 0.299912
1003.840820 0.310096
1003.079102 0.294469
1002.708008 0.308221
1001.932617 0.297969
1001.575195 0.302729
1000.785156 0.302658
1000.441406 0.315930
999.638672 0.301388
999.307617 0.293560
998.491211 0.300714
998.173828 0.307360
997.342773 0.272656
997.040039 0.297654
996.195313 0.270800
995.906250 0.288556
995.046875 0.284415
994.771484 0.279461
993.898438 0.270659
993.636719 0.289036
992.749023 0.284266
992.501953 0.270915
991.599609 0.275869
991.367188 0.291924
990.450195 0.288279
990.231445 0.282234
989.300781 0.279884
989.095703 0.289996
987.959961 0.289334
986.824219 0.285063
985.687500 0.298231
984.550781 0.284341
983.414063 0.286685
982.277344 0.301046
981.139648 0.267941
980.001953 0.287705
978.864258 0.284642
977.726563 0.303193
976.587891 0.294726
975.449219 0.279660
974.310547 0.288601
973.171875 0.314934
972.032227 0.296875
970.893555 0.284220
969.752930 0.291953
968.613281 0.291892
967.473633 0.307410
966.333008 0.301354
965.192383 0.300691
964.050781 0.291045
962.910156 0.308346
961.768555 0.311274
960.626953 0.312405
959.485352 0.290199
958.342773 0.292531
957.200195 0.288282
956.057617 0.294798
954.915039 0.300714
953.771484 0.288098
952.628906 0.298195
951.485352 0.286780
950.340820 0.290900
949.197266 0.289047
948.052734 0.296747
946.908203 0.278775
945.762695 0.289458
944.618164 0.272689
943.472656 0.295897
942.327148 0.297623
941.181641 0.275496
940.035156 0.286168
938.888672 0.287895
937.742188 0.288430
936.595703 0.284793
935.448242 0.297241
934.301758 0.282885
933.154297 0.289374
932.005859 0.304194
930.858398 0.302343
929.709961 0.295138
928.561523 0.298049
927.413086 0.314044
926.263672 0.297327
925.114258 0.309748
923.964844 0.296605
922.815430 0.322095
921.665039 0.328561
920.514648 0.307700
919.364258 0.313573
918.213867 0.311724
917.062500 0.294442
915.911133 0.319305
914.759766 0.316270
913.608398 0.303743
912.456055 0.316134
911.303711 0.319030
910.151367 0.309476
908.999023 0.314151
907.845703 0.302824
906.692383 0.325865
905.539063 0.322241
904.385742 0.322171
903.231445 0.322102
902.077148 0.334464
900.922852 0.332024
899.768555 0.322485
898.613281 0.320049
897.458008 0.325894
896.302734 0.334694
895.146484 0.346445
893.991211 0.330411
892.834961 0.359887
891.678711 0.336177
890.521484 0.344373
889.364258 0.377370
888.207031 0.380241
887.049805 0.381929
885.892578 0.418438
884.734375 0.413627
883.576172 0.424745
882.417969 0.408729
881.258789 0.391540
880.099609 0.403245
878.940430 0.419072
877.781250 0.373017
876.621094 0.371757
875.461914 0.359307
874.301758 0.342740
873.140625 0.353852
871.980469 0.336116
870.819336 0.316033
869.658203 0.324201
868.496094 0.322954
867.334961 0.313474
866.172852 0.323402
865.010742 0.312750
863.847656 0.319147
862.685547 0.317314
861.522461 0.310783
860.359375 0.308953
859.195313 0.326502
858.031250 0.326431
856.867188 0.326947
855.703125 0.329223
854.539063 0.326217
853.374023 0.341984
852.208984 0.322556
851.043945 0.321899
849.877930 0.328277
848.711914 0.332894
847.545898 0.339852
846.379883 0.332748
845.212891 0.325061
844.046875 0.331431
842.879883 0.354776
841.711914 0.371672
840.544922 0.350524
839.376953 0.384381
838.208008 0.403599
837.040039 0.444446
835.871094 0.459550
834.702148 0.510889
833.533203 0.583828
832.364258 0.654399
831.194336 0.774007
830.024414 0.890642
828.854492 0.978616
827.683594 1.000000
826.513672 0.949587
825.342773 0.895111
824.170898 0.805073
823.000000 0.756485
821.828125 0.667100
820.656250 0.611568
819.483398 0.564221
818.311523 0.516311
817.138672 0.459101
815.965820 0.447933
814.791992 0.430363
813.619141 0.414548
812.445313 0.415039
811.270508 0.388177
810.096680 0.389836
808.921875 0.379279
807.747070 0.362911
806.572266 0.359924
805.396484 0.365076
804.221680 0.353953
803.045898 0.360266
801.869141 0.361349
800.693359 0.368238
799.516602 0.355382
798.339844 0.359367
797.162109 0.338392
795.985352 0.352244
794.807617 0.355067
793.628906 0.361949
792.451172 0.369988
791.272461 0.363528
790.093750 0.369824
788.915039 0.368583
787.735352 0.384725
786.556641 0.370737
785.375977 0.371813
784.196289 0.367677
783.015625 0.354860
781.835938 0.353623
780.654297 0.353545
779.473633 0.366193
778.291992 0.336037
777.110352 0.343479
775.928711 0.342825
774.747070 0.325409
773.564453 0.342094
772.381836 0.347218
771.199219 0.338476
770.015625 0.336669
768.832031 0.333707
767.648438 0.333633
766.464844 0.354911
765.280273 0.346177
764.095703 0.367443
762.911133 0.366784
761.725586 0.374198
760.541016 0.412736
759.355469 0.412644
758.168945 0.437328
756.983398 0.441263
755.796875 0.460170
754.610352 0.456037
753.422852 0.424849
752.236328 0.418423
751.048828 0.417178
749.861328 0.392923
748.672852 0.403763
747.485352 0.380097
746.296875 0.397259
745.107422 0.383375
743.918945 0.387312
742.729492 0.371139
741.540039 0.358419
740.349609 0.349150
739.160156 0.346202
737.969727 0.353012
736.779297 0.366706
735.587891 0.345969
734.397461 0.363673
733.206055 0.331476
732.013672 0.351470
730.822266 0.350244
729.629883 0.351312
728.437500 0.338054
727.244141 0.351727
726.051758 0.343630
724.858398 0.344125
723.665039 0.352062
722.470703 0.357706
721.276367 0.364492
720.082031 0.350681
718.887695 0.333443
717.693359 0.349951
716.498047 0.359591
715.302734 0.351508
714.106445 0.358286
712.911133 0.342780
711.714844 0.339847
710.517578 0.363754
709.321289 0.363101
708.124023 0.351033
706.926758 0.361796
705.729492 0.378260
704.531250 0.359922
703.333008 0.379230
702.134766 0.366031
700.936523 0.381338
699.737305 0.378973
698.538086 0.371480
697.338867 0.386776
696.138672 0.381563
694.938477 0.378061
693.738281 0.382529
692.538086 0.386426
691.336914 0.393736
690.135742 0.384545
688.934570 0.386164
687.732422 0.399723
686.531250 0.376325
685.328125 0.400678
684.125977 0.411383
682.923828 0.392544
681.720703 0.404949
680.516602 0.396908
679.313477 0.395115
678.109375 0.407512
676.905273 0.411959
675.701172 0.424346
674.496094 0.425384
673.291992 0.430958
672.085938 0.432560
670.880859 0.421126
669.674805 0.413664
668.468750 0.419802
667.262695 0.430468
666.055664 0.428105
664.849609 0.415552
663.642578 0.416024
662.434570 0.422720
661.227539 0.417531
660.019531 0.411214
658.810547 0.387935
657.602539 0.414984
656.393555 0.389454
655.184570 0.391625
653.975586 0.393231
652.765625 0.392012
651.555664 0.399828
650.345703 0.396349
649.134766 0.392872
647.924805 0.373030
646.712891 0.387050
645.501953 0.381885
644.291016 0.375030
643.079102 0.384530
641.866211 0.390079
640.654297 0.377591
639.441406 0.395535
638.228516 0.396007
637.015625 0.406617
635.801758 0.384002
634.587891 0.385603
633.374023 0.385514
632.160156 0.383738
630.945313 0.381962
629.730469 0.376813
628.514648 0.380100
627.299805 0.374392
626.083984 0.402969
624.868164 0.382648
623.651367 0.385369
622.435547 0.377418
621.218750 0.412144
620.000977 0.406997
618.784180 0.409710
617.566406 0.406810
616.347656 0.429156
615.129883 0.413353
613.911133 0.404847
612.692383 0.405314
611.473633 0.398496
610.253906 0.396162
609.034180 0.394951
607.814453 0.401021
606.594727 0.402048
605.374023 0.396357
604.153320 0.406900
602.931641 0.402329
601.710938 0.382656
600.489258 0.383127
599.267578 0.401492
598.044922 0.409785
596.822266 0.409690
595.599609 0.410154
594.376953 0.426261
593.153320 0.414991
591.929688 0.421596
590.706055 0.437689
589.481445 0.420843
588.257813 0.426326
587.032227 0.445753
585.807617 0.464056
584.582031 0.469525
583.356445 0.468301
582.130859 0.472651
580.905273 0.461397
579.678711 0.486917
578.452148 0.499058
577.224609 0.469986
575.997070 0.499940
574.769531 0.480343
573.541992 0.472997
572.313477 0.494028
571.084961 0.440517
569.856445 0.463770
568.627930 0.444760
567.398438 0.453550
566.168945 0.450110
564.939453 0.443894
563.708984 0.427683
562.478516 0.446464
561.248047 0.425263
560.016602 0.424609
558.785156 0.437828
557.553711 0.421637
556.322266 0.403790
555.089844 0.431422
553.857422 0.421897
552.625000 0.420136
551.391602 0.401197
550.158203 0.417723
548.924805 0.422057
547.690430 0.415313
546.457031 0.401929
545.222656 0.426189
543.987305 0.414468
542.752930 0.409392
541.517578 0.415934
540.281250 0.416389
539.045898 0.403024
537.809570 0.412878
536.573242 0.384047
535.335938 0.395006
534.099609 0.420320
532.861328 0.416357
531.624023 0.418467
530.385742 0.410090
529.148438 0.432618
527.909180 0.438033
526.670898 0.429105
525.431641 0.432313
524.192383 0.430558
522.952148 0.443684
521.712891 0.444682
520.472656 0.464961
519.231445 0.448879
517.991211 0.457033
516.750000 0.454173
515.508789 0.455717
514.266602 0.462212
513.024414 0.452201
511.782227 0.460895
510.540039 0.476182
509.296875 0.461227
508.053711 0.448477
506.810547 0.436283
505.566406 0.456506
504.322266 0.449258
503.078125 0.467821
501.833008 0.474847
500.587891 0.442903
499.342773 0.475720
498.097656 0.464636
496.851563 0.454105
495.605469 0.455095
494.359375 0.472528
493.112305 0.460908
491.865234 0.460250
490.618164 0.466167
489.370117 0.488510
488.123047 0.465398
486.874023 0.481710
485.625977 0.467914
484.376953 0.476557
483.127930 0.481367
481.878906 0.493831
480.628906 0.480045
479.378906 0.501795
478.128906 0.497304
476.877930 0.497732
475.626953 0.493790
474.375977 0.520431
473.125000 0.493555
471.873047 0.509812
470.621094 0.515694
469.368164 0.528665
468.115234 0.557993
466.862305 0.569857
465.609375 0.599706
464.355469 0.596838
463.102539 0.647373
461.847656 0.660839
460.593750 0.745104
459.338867 0.785766
458.083984 0.834030
456.828125 0.926902
455.572266 0.952799
454.316406 0.952027
453.060547 0.938746
451.803711 0.914596
450.546875 0.862733
449.290039 0.769588
448.032227 0.759623
446.774414 0.687191
445.516602 0.666931
444.257813 0.655912
442.999023 0.649783
441.740234 0.620863
440.481445 0.623427
439.221680 0.628701
437.961914 0.606315
436.701172 0.627857
435.441406 0.638547
434.180664 0.626471
432.918945 0.657744
431.658203 0.679794
430.396484 0.662843
429.133789 0.672428
427.872070 0.689046
426.609375 0.692668
425.346680 0.709272
424.083008 0.710723
422.819336 0.711093
421.555664 0.727680
420.291016 0.735071
419.027344 0.754887
417.762695 0.786038
416.497070 0.820414
415.231445 0.822375
413.965820 0.864824
412.700195 0.880805
411.433594 0.902175
410.166992 0.924074
408.900391 0.975085
407.632813 1.001269
406.365234 1.011268
405.097656 1.072998
403.830078 1.077587
402.561523 1.089714
401.291992 1.119607
400.023438 1.191481
398.753906 1.232100
397.484375 1.224804
396.214844 1.234728
394.944336 1.271003
393.673828 1.283061
392.402344 1.353714
391.130859 1.320060
389.859375 1.382071
388.587891 1.379585
387.315430 1.383008
386.042969 1.415961
384.770508 1.401121
383.497070 1.433517
382.223633 1.454093
380.950195 1.444618
379.676758 1.454990
378.402344 1.432651
377.126953 1.428548
375.852539 1.437309
374.577148 1.434813
373.301758 1.479992
372.025391 1.461957
370.749023 1.455709
369.472656 1.474621
368.196289 1.482285
366.918945 1.486736
365.641602 1.495998
364.363281 1.500443
363.085938 1.510766
361.807617 1.490084
360.528320 1.524984
359.249023 1.467448
357.969727 1.447326
356.690430 1.459784
355.410156 1.455154
354.129883 1.444121
352.849609 1.451235
351.568359 1.407137
350.287109 1.368393
349.005859 1.413372
347.723633 1.411957
346.441406 1.382299
345.159180 1.348927
343.875977 1.332614
342.592773 1.312050
341.309570 1.281380
340.026367 1.249662
338.742188 1.212638
337.457031 1.221380
336.172852 1.172681
334.887695 1.121878
333.602539 1.117879
332.316406 1.093155
331.030273 1.040285
329.744141 1.033121
328.457031 1.025429
327.170898 0.984826
325.882813 0.950611
324.595703 0.931271
323.307617 0.910880
322.019531 0.897393
320.730469 0.875430
319.441406 0.856127
318.152344 0.862803
316.863281 0.820730
315.573242 0.808341
314.283203 0.808139
312.992188 0.803701
311.701172 0.823614
310.410156 0.842459
309.119141 0.792517
307.827148 0.802368
306.535156 0.813800
305.242188 0.813067
303.950195 0.841932
302.656250 0.832209
301.363281 0.832000
300.069336 0.864535
298.775391 0.867485
297.480469 0.888381
296.186523 0.902406
294.891602 0.931724
293.595703 0.981598
292.299805 1.008244
291.003906 1.049111
289.708008 1.090484
288.411133 1.152913
287.114258 1.200560
285.816406 1.295582
284.518555 1.334218
283.220703 1.440738
281.922852 1.514050
280.624023 1.611001
279.325195 1.654776
278.025391 1.727977
276.725586 1.835839
275.425781 1.902124
274.125977 2.010412
272.825195 2.157519
271.523438 2.218419
270.222656 2.317616
268.920898 2.394192
267.619141 2.541575
266.316406 2.633268
265.013672 2.686099
263.710938 2.741001
262.408203 2.834669
261.104492 2.824512
259.799805 2.899771
258.496094 2.967132
257.191406 3.006702
255.886719 3.010646
254.581055 3.108286
253.275391 3.116911
251.969727 3.223368
250.663086 3.250265
249.356445 3.305385
248.049805 3.347407
246.742188 3.427560
245.434570 3.473185
244.126953 3.514607
242.818359 3.537206
241.509766 3.524289
240.201172 3.485800
238.891602 3.558485
237.582031 3.565395
236.271484 3.556653
234.961914 3.556259
233.650391 3.513638
232.339844 3.438725
231.028320 3.395112
229.716797 3.429137
228.405273 3.396484
227.092773 3.363848
225.779297 3.328625
224.466797 3.259596
223.153320 3.208290
221.839844 3.190816
220.525391 3.134353
219.210938 3.117945
217.896484 3.056852
216.581055 3.011897
215.265625 2.939953
213.950195 2.867528
212.633789 2.829922
211.317383 2.750295
210.000977 2.663963
208.683594 2.646151
207.366211 2.595156
206.048828 2.478340
204.730469 2.401497
203.412109 2.395689
202.092773 2.344810
200.773438 2.286188
199.454102 2.247273
198.133789 2.236850
196.814453 2.158117
195.493164 2.171005
194.172852 2.167333
192.851563 2.095918
191.529297 2.093818
190.208008 2.126348
188.885742 2.119072
187.562500 2.098369
186.239258 2.153594
184.916016 2.140636
183.592773 2.166914
182.268555 2.204015
180.944336 2.270502
179.619141 2.259589
178.293945 2.288900
176.968750 2.365105
175.643555 2.343866
174.317383 2.457112
172.990234 2.486338
171.664063 2.540781
170.336914 2.636379
169.008789 2.698472
167.680664 2.701874
166.352539 2.738710
165.024414 2.740555
163.695313 2.794326
162.366211 2.826480
161.036133 2.880199
159.706055 2.830629
158.375977 2.877640
157.044922 2.915897
155.713867 2.987498
154.382813 3.059060
153.050781 3.157261
151.718750 3.161035
150.385742 3.264284
149.053711 3.373627
147.719727 3.424488
146.386719 3.536803
145.052734 3.582469
143.717773 3.590727
142.383789 3.722359
141.048828 3.842660
139.712891 3.827814
138.377930 3.889194
137.041016 3.893775
135.705078 3.924427
134.368164 3.920305
133.031250 3.935602
131.693359 4.018832
130.355469 3.982511
129.017578 3.940592
127.678711 3.886444
126.339844 3.890498
125.000977 3.903222
123.661133 3.791492
122.321289 3.799645
120.980469 3.707883
119.639648 3.632476
118.298828 3.656966
116.957031 3.634583
115.615234 3.623922
114.273438 3.593923
112.930664 3.587857
111.587891 3.610795
110.244141 3.594045
108.900391 3.567134
107.556641 3.449748
106.211914 3.263814
104.867188 3.085603
103.522461 2.868376
102.176758 2.600993
100.831055 2.299235
99.484375 1.994596
98.137695 1.691137
