3198.529297 0.005594
3197.824219 0.007831
3197.119141 0.007829
3196.414063 0.007828
3195.708008 0.006709
3195.001953 0.008944
3194.296875 0.007266
3193.590820 0.006706
3192.884766 0.009498
3192.178711 0.006145
3191.472656 0.009495
3190.765625 0.007818
3190.059570 0.008934
3189.352539 0.008932
3188.646484 0.006698
3187.939453 0.008372
3187.232422 0.008928
3186.525391 0.007253
3185.818359 0.008368
3185.111328 0.005578
3184.404297 0.006134
3183.696289 0.006691
3182.989258 0.008362
3182.281250 0.006131
3181.573242 0.009474
3180.865234 0.007244
3180.157227 0.008357
3179.449219 0.008913
3178.741211 0.005013
3178.033203 0.008353
3177.324219 0.005568
3176.616211 0.008350
3175.907227 0.008349
3175.198242 0.008348
3174.489258 0.008903
3173.780273 0.008901
3173.071289 0.008900
3172.362305 0.008342
3171.652344 0.009453
3170.943359 0.008340
3170.233398 0.007782
3169.523438 0.003335
3168.814453 0.003334
3168.104492 0.007223
3167.394531 0.005555
3166.683594 0.005554
3165.973633 0.008886
3165.263672 0.005553
3164.552734 0.007772
3163.841797 0.007216
3163.130859 0.006660
3162.420898 0.007769
3161.709961 0.006103
3160.998047 0.007211
3160.287109 0.012757
3159.576172 0.004991
3158.864258 0.008317
3158.153320 0.006652
3157.441406 0.008868
3156.729492 0.009975
3156.017578 0.007203
3155.305664 0.007756
3154.593750 0.009416
3153.880859 0.003323
3153.168945 0.008860
3152.456055 0.009412
3151.744141 0.007750
3151.031250 0.007195
3150.318359 0.008854
3149.605469 0.008852
3148.892578 0.006638
3148.178711 0.008296
3147.465820 0.011060
3146.751953 0.006082
3146.039063 0.008845
3145.325195 0.010502
3144.611328 0.007737
3143.897461 0.009393
3143.183594 0.005525
3142.468750 0.012704
3141.754883 0.007732
3141.041016 0.009387
3140.326172 0.008281
3139.611328 0.006624
3138.896484 0.006071
3138.181641 0.006070
3137.466797 0.008827
3136.751953 0.004965
3136.037109 0.008273
3135.321289 0.008823
3134.605469 0.007719
3133.890625 0.007166
3133.174805 0.007165
3132.458984 0.009368
3131.743164 0.009367
3131.027344 0.006611
3130.310547 0.008262
3129.594727 0.009913
3128.877930 0.006057
3128.161133 0.009909
3127.445313 0.009908
3126.728516 0.008255
3126.010742 0.013206
3125.293945 0.009352
3124.577148 0.007701
3123.859375 0.008249
3123.142578 0.009348
3122.424805 0.011545
3121.707031 0.008245
3120.989258 0.010992
3120.271484 0.006594
3119.553711 0.008790
3118.835938 0.008240
3118.117188 0.012632
3117.399414 0.009335
3116.680664 0.008784
3115.961914 0.008234
3115.243164 0.008781
3114.524414 0.008780
3113.805664 0.008778
3113.086914 0.008777
3112.367188 0.011518
3111.648438 0.010419
3110.928711 0.009869
3110.208984 0.007126
3109.489258 0.008769
3108.769531 0.008220
3108.049805 0.008219
3107.329102 0.010408
3106.609375 0.009859
3105.888672 0.012048
3105.168945 0.010403
3104.448242 0.007117
3103.727539 0.008210
3103.006836 0.009303
3102.285156 0.008754
3101.564453 0.009300
3100.843750 0.010392
3100.122070 0.008750
3099.400391 0.009842
3098.678711 0.009294
3097.957031 0.014758
3097.235352 0.008744
3096.513672 0.010382
3095.791992 0.008741
3095.069336 0.012017
3094.346680 0.009830
3093.625000 0.009828
3092.902344 0.009281
3092.179688 0.011462
3091.457031 0.008732
3090.733398 0.010913
3090.010742 0.012002
3089.287109 0.010364
3088.564453 0.010907
3087.840820 0.009269
3087.117188 0.009268
3086.393555 0.008721
3085.669922 0.010900
3084.946289 0.011442
3084.221680 0.011440
3083.498047 0.013617
3082.773438 0.010347
3082.048828 0.013612
3081.324219 0.009799
3080.599609 0.010342
3079.875000 0.010884
3079.149414 0.011426
3078.424805 0.011969
3077.699219 0.012510
3076.974609 0.012508
3076.249023 0.013050
3075.523438 0.009786
3074.797852 0.009240
3074.071289 0.005978
3073.345703 0.010867
3072.619141 0.009235
3071.893555 0.013579
3071.166992 0.011404
3070.440430 0.011402
3069.713867 0.009229
3068.987305 0.009227
3068.259766 0.006512
3067.533203 0.009767
3066.805664 0.009765
3066.079102 0.011933
3065.351563 0.015184
3064.624023 0.012471
3063.896484 0.013011
3063.168945 0.011382
3062.440430 0.009213
3061.712891 0.009753
3060.984375 0.009209
3060.255859 0.009208
3059.527344 0.014080
3058.798828 0.011370
3058.070313 0.013533
3057.341797 0.010825
3056.613281 0.009741
3055.883789 0.013526
3055.154297 0.012442
3054.424805 0.015144
3053.695313 0.012978
3052.965820 0.012976
3052.236328 0.014595
3051.506836 0.012431
3050.776367 0.013509
3050.046875 0.012426
3049.316406 0.011344
3048.585938 0.012422
3047.855469 0.012420
3047.125000 0.014577
3046.393555 0.011875
3045.663086 0.013492
3044.931641 0.014030
3044.201172 0.012948
3043.469727 0.015103
3042.738281 0.014022
3042.006836 0.014019
3041.275391 0.015634
3040.542969 0.011319
3039.811523 0.014551
3039.079102 0.009699
3038.346680 0.012391
3037.614258 0.011850
3036.881836 0.015079
3036.149414 0.013461
3035.416992 0.010767
3034.683594 0.012918
3033.951172 0.014530
3033.217773 0.015065
3032.484375 0.014525
3031.750977 0.010219
3031.017578 0.012906
3030.284180 0.015054
3029.549805 0.015052
3028.816406 0.015049
3028.082031 0.019345
3027.347656 0.014506
3026.613281 0.013966
3025.878906 0.013964
3025.144531 0.013424
3024.410156 0.015569
3023.674805 0.017177
3022.939453 0.014490
3022.205078 0.017707
3021.469727 0.015558
3020.734375 0.017164
3019.999023 0.014480
3019.262695 0.017694
3018.527344 0.015011
3017.791016 0.017152
3017.054688 0.017149
3016.318359 0.017681
3015.582031 0.014464
3014.845703 0.014997
3014.109375 0.013923
3013.373047 0.016062
3012.635742 0.018200
3011.898438 0.017662
3011.161133 0.016053
3010.424805 0.017655
3009.686523 0.017652
3008.949219 0.017649
3008.211914 0.021923
3007.473633 0.019246
3006.736328 0.014432
3005.998047 0.021377
3005.259766 0.018701
3004.521484 0.019766
3003.782227 0.021365
3003.043945 0.020827
3002.305664 0.020823
3001.566406 0.016549
3000.827148 0.019748
3000.087891 0.021879
2999.348633 0.018674
2998.609375 0.021871
2997.870117 0.018667
2997.129883 0.019730
2996.389648 0.026657
2995.650391 0.017591
2994.910156 0.020785
2994.169922 0.020781
2993.429688 0.019712
2992.688477 0.022904
2991.948242 0.023965
2991.207031 0.019701
2990.465820 0.023956
2989.725586 0.026081
2988.983398 0.023415
2988.242188 0.025007
2987.500977 0.025002
2986.759766 0.022870
2986.017578 0.029779
2985.275391 0.019672
2984.533203 0.026578
2983.791016 0.023916
2983.048828 0.022849
2982.306641 0.029220
2981.563477 0.030277
2980.821289 0.023898
2980.078125 0.033983
2979.334961 0.033445
2978.591797 0.030254
2977.848633 0.027595
2977.105469 0.028651
2976.361328 0.032359
2975.618164 0.032353
2974.874023 0.038711
2974.129883 0.035522
2973.385742 0.043467
2972.641602 0.043459
2971.897461 0.039212
2971.152344 0.044502
2970.408203 0.037078
2969.663086 0.039190
2968.917969 0.042889
2968.172852 0.043940
2967.427734 0.040756
2966.682617 0.043394
2965.936523 0.047619
2965.191406 0.044965
2964.445313 0.048659
2963.699219 0.050236
2962.953125 0.054456
2962.207031 0.048631
2961.460938 0.051265
2960.713867 0.058653
2959.967773 0.056000
2959.220703 0.055990
2958.473633 0.058091
2957.726563 0.060721
2956.979492 0.062293
2956.232422 0.059642
2955.484375 0.059631
2954.737305 0.062785
2953.989258 0.068576
2953.241211 0.063289
2952.493164 0.068550
2951.745117 0.064320
2950.997070 0.062199
2950.248047 0.069566
2949.500000 0.060595
2948.750977 0.062164
2948.001953 0.073213
2947.252930 0.074253
2946.503906 0.072659
2945.754883 0.072645
2945.004883 0.069474
2944.255859 0.067356
2943.505859 0.074182
2942.755859 0.069960
2942.005859 0.073628
2941.255859 0.065201
2940.504883 0.074126
2939.754883 0.065702
2939.003906 0.070420
2938.252930 0.056745
2937.502930 0.075121
2936.750977 0.067228
2936.000000 0.064065
2935.249023 0.069303
2934.497070 0.066140
2933.746094 0.066652
2932.994141 0.070313
2932.242188 0.072398
2931.490234 0.071335
2930.738281 0.065553
2929.985352 0.074454
2929.233398 0.070246
2928.480469 0.067612
2927.727539 0.067075
2926.974609 0.062871
2926.221680 0.060240
2925.468750 0.069132
2924.715820 0.068595
2923.961914 0.070152
2923.208008 0.066998
2922.455078 0.069079
2921.701172 0.066450
2920.946289 0.064868
2920.192383 0.072178
2919.438477 0.060659
2918.683594 0.067967
2917.928711 0.076318
2917.173828 0.070032
2916.418945 0.073154
2915.664063 0.076274
2914.909180 0.066858
2914.153320 0.068412
2913.398438 0.072054
2912.642578 0.081436
2911.886719 0.076201
2911.130859 0.079318
2910.375000 0.077216
2909.619141 0.074071
2908.862305 0.077186
2908.105469 0.074564
2907.349609 0.068815
2906.592773 0.074014
2905.835938 0.077648
2905.078125 0.082843
2904.321289 0.081786
2903.563477 0.080207
2902.806641 0.084879
2902.048828 0.083300
2901.291016 0.077038
2900.533203 0.077544
2899.774414 0.069204
2899.016602 0.075433
2898.257813 0.085821
2897.500000 0.076444
2896.741211 0.081109
2895.982422 0.087331
2895.222656 0.084196
2894.463867 0.093013
2893.705078 0.086241
2892.945313 0.081550
2892.185547 0.081015
2891.425781 0.082557
2890.666016 0.084617
2889.906250 0.085120
2889.146484 0.080952
2888.385742 0.083012
2887.625000 0.082996
2886.864258 0.081424
2886.103516 0.084519
2885.342773 0.081393
2884.582031 0.080340
2883.821289 0.076179
2883.059570 0.081345
2882.297852 0.077185
2881.536133 0.084939
2880.774414 0.088548
2880.012695 0.080247
2879.250977 0.083855
2878.488281 0.089531
2877.726563 0.078131
2876.963867 0.084323
2876.201172 0.082238
2875.438477 0.085842
2874.674805 0.086342
2873.912109 0.098732
2873.149414 0.086826
2872.385742 0.081642
2871.622070 0.087309
2870.858398 0.083160
2870.094727 0.088824
2869.330078 0.090872
2868.566406 0.096016
2867.801758 0.088256
2867.038086 0.091335
2866.273438 0.090285
2865.508789 0.095426
2864.743164 0.102112
2863.978516 0.096420
2863.212891 0.091246
2862.448242 0.097413
2861.682617 0.084512
2860.916992 0.086556
2860.151367 0.090145
2859.384766 0.096307
2858.619141 0.098348
2857.852539 0.087518
2857.086914 0.089560
2856.320313 0.095203
2855.553711 0.090554
2854.786133 0.095680
2854.019531 0.090518
2853.251953 0.091529
2852.485352 0.087398
2851.717773 0.097148
2850.950195 0.094045
2850.182617 0.097110
2849.414063 0.093495
2848.646484 0.093990
2847.877930 0.098080
2847.110352 0.099087
2846.341797 0.093935
2845.573242 0.095969
2844.803711 0.095437
2844.035156 0.084132
2843.266602 0.092322
2842.497070 0.091791
2841.727539 0.095875
2840.958008 0.097394
2840.188477 0.086612
2839.418945 0.094281
2838.648438 0.093751
2837.878906 0.097318
2837.108398 0.092178
2836.337891 0.096255
2835.567383 0.087022
2834.795898 0.090076
2834.025391 0.091593
2833.254883 0.086971
2832.483398 0.084396
2831.711914 0.086425
2830.940430 0.093055
2830.168945 0.086903
2829.397461 0.088419
2828.625000 0.088912
2827.852539 0.084808
2827.081055 0.082237
2826.308594 0.087838
2825.536133 0.086289
2824.762695 0.083209
2823.990234 0.089828
2823.216797 0.084197
2822.444336 0.088262
2821.670898 0.083144
2820.897461 0.088227
2820.123047 0.085660
2819.349609 0.075448
2818.576172 0.092252
2817.801758 0.089686
2817.027344 0.086612
2816.252930 0.073860
2815.478516 0.079447
2814.704102 0.081468
2813.928711 0.078907
2813.154297 0.084490
2812.378906 0.081420
2811.603516 0.074790
2810.828125 0.080370
2810.052734 0.078829
2809.276367 0.072203
2808.500977 0.077272
2807.724609 0.080307
2806.948242 0.074701
2806.171875 0.077735
2805.395508 0.077719
2804.619141 0.068054
2803.841797 0.075149
2803.064453 0.075642
2802.288086 0.071567
2801.510742 0.073075
2800.733398 0.072046
2799.955078 0.073046
2799.177734 0.078610
2798.399414 0.073017
2797.621094 0.067933
2796.842773 0.067919
2796.064453 0.066892
2795.286133 0.071945
2794.507813 0.065852
2793.728516 0.067359
2792.950195 0.062788
2792.170898 0.060750
2791.391602 0.069849
2790.611328 0.067811
2789.832031 0.067797
2789.052734 0.070819
2788.272461 0.067770
2787.492188 0.066240
2786.711914 0.062688
2785.931641 0.067730
2785.151367 0.063168
2784.370117 0.061640
2783.588867 0.059102
2782.808594 0.061615
2782.027344 0.061098
2781.246094 0.064620
2780.463867 0.056531
2779.682617 0.058033
2778.900391 0.063572
2778.119141 0.061037
2777.336914 0.060520
2776.554688 0.060004
2775.771484 0.057471
2774.989258 0.062500
2774.206055 0.060976
2773.423828 0.054917
2772.640625 0.062966
2771.857422 0.064968
2771.074219 0.060423
2770.290039 0.061418
2769.506836 0.052849
2768.722656 0.057871
2767.938477 0.054840
2767.154297 0.055332
2766.370117 0.053812
2765.585938 0.060841
2764.800781 0.061332
2764.016602 0.052775
2763.231445 0.054272
2762.446289 0.053758
2761.661133 0.056761
2760.875000 0.053737
2760.089844 0.061760
2759.303711 0.055221
2758.518555 0.058221
2757.732422 0.052690
2756.945313 0.053181
2756.159180 0.057183
2755.373047 0.060181
2754.585938 0.056157
2753.798828 0.055143
2753.012695 0.059142
2752.224609 0.055622
2751.437500 0.054609
2750.650391 0.049088
2749.862305 0.053585
2749.074219 0.055076
2748.287109 0.054565
2747.499023 0.049048
2746.709961 0.053542
2745.921875 0.054031
2745.132813 0.057522
2744.344727 0.051009
2743.555664 0.057498
2742.766602 0.052988
2741.977539 0.054476
2741.187500 0.056464
2740.398438 0.051457
2739.608398 0.055442
2738.818359 0.050437
2738.028320 0.059913
2737.238281 0.062397
2736.448242 0.062384
2735.657227 0.061873
2734.866211 0.056871
2734.075195 0.050376
2733.284180 0.050864
2732.493164 0.048361
2731.702148 0.050345
2730.910156 0.063791
2730.119141 0.059293
2729.327148 0.050812
2728.535156 0.055783
2727.743164 0.053282
2726.950195 0.054764
2726.158203 0.047785
2725.365234 0.055240
2724.572266 0.052741
2723.779297 0.045766
2722.986328 0.051724
2722.193359 0.048730
2721.399414 0.057669
2720.606445 0.051693
2719.812500 0.052676
2719.018555 0.053659
2718.224609 0.051661
2717.430664 0.048671
2716.635742 0.051640
2715.840820 0.050140
2715.046875 0.048641
2714.251953 0.051112
2713.456055 0.048125
2712.661133 0.052083
2711.866211 0.048105
2711.070313 0.048591
2710.274414 0.048085
2709.478516 0.051049
2708.682617 0.049552
2707.886719 0.046074
2707.089844 0.053494
2706.293945 0.045560
2705.497070 0.046541
2704.700195 0.052471
2703.903320 0.049491
2703.105469 0.054924
2702.308594 0.053923
2701.510742 0.048966
2700.712891 0.048462
2699.915039 0.050429
2699.117188 0.043993
2698.319336 0.043490
2697.520508 0.056821
2696.722656 0.051870
2695.923828 0.048402
2695.125000 0.049873
2694.326172 0.052331
2693.526367 0.049359
2692.727539 0.056258
2691.927734 0.051312
2691.127930 0.047849
2690.328125 0.042414
2689.528320 0.050787
2688.728516 0.047819
2687.927734 0.047316
2687.126953 0.046321
2686.326172 0.045326
2685.525391 0.046302
2684.724609 0.050724
2683.923828 0.043821
2683.122070 0.047257
2682.321289 0.043310
2681.519531 0.049206
2680.717773 0.049196
2679.915039 0.050169
2679.113281 0.046717
2678.310547 0.048674
2677.508789 0.045714
2676.706055 0.050128
2675.903320 0.050117
2675.099609 0.050107
2674.296875 0.049605
2673.493164 0.045667
2672.690430 0.048603
2671.886719 0.050556
2671.083008 0.055453
2670.278320 0.048082
2669.474609 0.055920
2668.669922 0.048552
2667.865234 0.049033
2667.060547 0.046081
2666.255859 0.051953
2665.451172 0.049002
2664.646484 0.045072
2663.840820 0.047022
2663.035156 0.049461
2662.229492 0.052388
2661.423828 0.042098
2660.618164 0.048941
2659.811523 0.046973
2659.004883 0.045007
2658.199219 0.045975
2657.391602 0.050856
2656.584961 0.051334
2655.778320 0.043503
2655.033203 0.050935
2654.970703 0.049358
2654.227539 0.047017
2654.164063 0.054722
2653.421875 0.046520
2653.356445 0.044941
2652.616211 0.044554
2652.548828 0.046396
2651.810547 0.045526
2651.740234 0.048340
2651.004883 0.044050
2650.932617 0.048330
2650.198242 0.047958
2650.124023 0.051736
2649.392578 0.049418
2649.316406 0.047333
2648.585938 0.044518
2648.507813 0.047323
2647.779297 0.045000
2647.699219 0.044875
2646.972656 0.045482
2646.889648 0.046816
2646.166016 0.041073
2646.081055 0.040468
2645.359375 0.043511
2645.271484 0.040459
2644.552734 0.045948
2644.461914 0.047274
2643.745117 0.048384
2643.652344 0.052624
2642.938477 0.045933
2642.842773 0.051638
2642.130859 0.043483
2642.033203 0.046757
2641.323242 0.049826
2641.222656 0.049182
2640.515625 0.042980
2640.413086 0.046737
2639.708008 0.048345
2639.602539 0.047701
2638.899414 0.049313
2638.791992 0.051584
2638.091797 0.048817
2637.981445 0.051573
2637.283203 0.048321
2637.169922 0.050103
2636.475586 0.050265
2636.359375 0.051551
2635.666992 0.050257
2635.547852 0.046678
2634.858398 0.047809
2634.736328 0.045696
2634.049805 0.043412
2633.924805 0.045686
2633.241211 0.054134
2633.113281 0.048106
2632.431641 0.049249
2632.300781 0.055383
2631.623047 0.048753
2631.489258 0.049057
2630.813477 0.046795
2630.676758 0.052932
2630.003906 0.050686
2629.864258 0.049036
2629.194336 0.050678
2629.051758 0.047084
2628.384766 0.040925
2628.238281 0.051442
2627.575195 0.054071
2627.425781 0.047064
2626.765625 0.051140
2626.612305 0.045114
2625.955078 0.045775
2625.798828 0.054804
2625.145508 0.051610
2624.985352 0.046065
2624.334961 0.047707
2624.171875 0.049933
2623.524414 0.060353
2623.358398 0.051861
2622.713867 0.060343
2622.543945 0.045066
2621.903320 0.055468
2621.729492 0.055715
2621.092773 0.052053
2620.916016 0.049406
2620.281250 0.051072
2620.100586 0.049396
2619.469727 0.046200
2619.286133 0.052775
2618.659180 0.056889
2618.471680 0.055668
2617.847656 0.049587
2617.656250 0.057108
2617.036133 0.046663
2616.840820 0.051773
2616.224609 0.051515
2616.025391 0.051762
2615.412109 0.058795
2615.209961 0.055620
2614.600586 0.048583
2614.394531 0.057059
2613.788086 0.057318
2613.578125 0.054630
2612.976563 0.052937
2612.762695 0.052685
2612.164063 0.049529
2611.946289 0.053157
2611.351563 0.057774
2611.129883 0.055561
2610.539063 0.049512
2610.312500 0.056515
2609.726563 0.048533
2609.496094 0.053123
2608.913086 0.050951
2608.678711 0.054077
2608.100586 0.061131
2607.862305 0.052617
2607.287109 0.055785
2607.044922 0.049710
2606.473633 0.058201
2606.227539 0.051147
2605.660156 0.055281
2605.409180 0.056443
2604.846680 0.058181
2604.591797 0.052572
2604.033203 0.052354
2603.773438 0.051596
2603.218750 0.055738
2602.955078 0.050621
2602.405273 0.060090
2602.136719 0.043380
2601.590820 0.050389
2601.318359 0.050117
2600.776367 0.050381
2600.500000 0.051552
2599.961914 0.050372
2599.680664 0.052023
2599.147461 0.047458
2598.861328 0.050567
2598.333008 0.053744
2598.042969 0.054408
2597.518555 0.049862
2597.222656 0.053915
2596.703125 0.046465
2596.403320 0.054866
2595.888672 0.048877
2595.583984 0.050042
2595.073242 0.050804
2594.763672 0.054361
2594.257813 0.054666
2593.943359 0.048097
2593.442383 0.048852
2593.123047 0.047125
2592.625977 0.047876
2592.302734 0.049518
2591.810547 0.057055
2591.482422 0.049027
2590.994141 0.055112
2590.661133 0.053822
2590.178711 0.046885
2589.839844 0.047084
2589.362305 0.053160
2589.018555 0.052838
2588.545898 0.046386
2588.197266 0.054267
2587.729492 0.048310
2587.375977 0.049934
2586.913086 0.055064
2586.554688 0.052804
2586.095703 0.050225
2585.732422 0.045593
2585.279297 0.054562
2584.910156 0.047023
2584.461914 0.047794
2584.087891 0.047013
2583.644531 0.050199
2583.265625 0.052278
2582.827148 0.051638
2582.443359 0.052747
2582.009766 0.049699
2581.620117 0.042667
2581.192383 0.057892
2580.796875 0.051286
2580.374023 0.052094
2579.973633 0.050316
2579.556641 0.052567
2579.150391 0.052701
2578.738281 0.056415
2578.327148 0.047899
2577.919922 0.057370
2577.503906 0.045973
2577.101563 0.053022
2576.679688 0.056497
2576.283203 0.049157
2575.855469 0.048347
2575.464844 0.057822
2575.031250 0.055515
2574.645508 0.052030
2574.207031 0.052632
2573.827148 0.055875
2573.381836 0.050229
2573.007813 0.047678
2572.557617 0.052131
2572.188477 0.053929
2571.732422 0.051641
2571.369141 0.054401
2570.907227 0.043503
2570.549805 0.050541
2570.082031 0.046361
2569.730469 0.047645
2569.256836 0.052563
2568.910156 0.053410
2568.430664 0.051119
2568.090820 0.055325
2567.605469 0.054451
2567.270508 0.053873
2566.779297 0.051096
2566.450195 0.052901
2565.953125 0.050130
2565.629883 0.058181
2565.125977 0.050119
2564.809570 0.047114
2564.299805 0.050108
2563.989258 0.053835
2563.472656 0.049143
2563.167969 0.046136
2562.646484 0.054856
2562.346680 0.053335
2561.819336 0.050075
2561.526367 0.050924
2560.992188 0.055786
2560.705078 0.057159
2560.164063 0.051007
2559.883789 0.058110
2559.336914 0.048613
2559.061523 0.055218
2558.508789 0.054796
2558.240234 0.048007
2557.680664 0.050497
2557.417969 0.045599
2556.852539 0.054296
2556.596680 0.050390
2556.024414 0.053332
2555.774414 0.050381
2555.195313 0.049987
2554.952148 0.054690
2554.367188 0.053308
2554.129883 0.050843
2553.538086 0.056627
2553.307617 0.048916
2552.708984 0.054712
2552.484375 0.048427
2551.878906 0.046138
2551.662109 0.052733
2551.049805 0.052310
2550.838867 0.054162
2550.219727 0.049921
2550.015625 0.054632
2549.390625 0.050386
2549.192383 0.057018
2548.560547 0.053701
2548.369141 0.050301
2547.730469 0.054164
2547.544922 0.056039
2546.899414 0.052727
2546.721680 0.050283
2546.069336 0.053666
2545.897461 0.052668
2545.238281 0.056028
2545.074219 0.052180
2544.407227 0.050319
2544.250000 0.050256
2543.576172 0.057427
2543.425781 0.053597
2542.745117 0.055516
2542.600586 0.055501
2541.913086 0.048862
2541.776367 0.053099
2541.082031 0.051223
2540.951172 0.049742
2540.250000 0.055953
2540.126953 0.049255
2539.417969 0.051674
2539.301758 0.059764
2538.585938 0.051663
2538.476563 0.050193
2537.752930 0.061129
2537.651367 0.054007
2536.920898 0.044533
2536.826172 0.052564
2536.087891 0.045471
2536.000000 0.045866
2535.254883 0.051617
2535.174805 0.054934
2534.421875 0.047818
2534.348633 0.058267
2533.587891 0.049700
2533.522461 0.057302
2532.754883 0.057261
2532.696289 0.057291
2531.920898 0.047786
2531.870117 0.050598
2531.086914 0.050613
2531.042969 0.054407
2530.252930 0.052494
2530.216797 0.051534
2529.418945 0.052955
2529.389648 0.052956
2528.583984 0.055306
2528.562500 0.054855
2527.749023 0.050095
2527.735352 0.051506
2526.914063 0.051974
2526.908203 0.053881
2526.081055 0.049601
2526.079102 0.054825
2525.253906 0.051479
2525.244141 0.052432
2524.425781 0.055717
2524.409180 0.054329
2523.597656 0.047679
2523.573242 0.056225
2522.769531 0.056214
2522.737305 0.056164
2521.941406 0.058109
2521.901367 0.056623
2521.113281 0.052384
2521.065430 0.055195
2520.285156 0.049994
2520.228516 0.057069
2519.456055 0.049985
2519.392578 0.057999
2518.627930 0.053308
2518.555664 0.052329
2517.798828 0.055201
2517.718750 0.047604
2516.969727 0.053764
2516.881836 0.057489
2516.140625 0.058987
2516.043945 0.051352
2515.311523 0.055647
2515.207031 0.053224
2514.481445 0.060868
2514.369141 0.050858
2513.651367 0.058955
2513.531250 0.051788
2512.822266 0.062747
2512.693359 0.047540
2511.992188 0.052280
2511.855469 0.056470
2511.162109 0.063674
2511.016602 0.053635
2510.332031 0.054161
2510.177734 0.054093
2509.500977 0.056526
2509.338867 0.057843
2508.670898 0.054141
2508.500000 0.054068
2507.839844 0.050807
2507.661133 0.051706
2507.008789 0.056495
2506.821289 0.051694
2506.177734 0.050789
2505.982422 0.057320
2505.346680 0.057423
2505.142578 0.052610
2504.515625 0.053617
2504.302734 0.057764
2503.683594 0.065942
2503.461914 0.054934
2502.852539 0.063558
2502.622070 0.060554
2502.020508 0.053587
2501.781250 0.055848
2501.188477 0.052629
2500.940430 0.060527
2500.356445 0.058308
2500.099609 0.055822
2499.524414 0.048818
2499.258789 0.052527
2498.691406 0.049757
2498.416992 0.054390
2497.859375 0.058276
2497.576172 0.055784
2497.026367 0.055423
2496.734375 0.052959
2496.193359 0.063464
2495.892578 0.053416
2495.360352 0.060138
2495.050781 0.051998
2494.527344 0.053499
2494.208008 0.058543
2493.694336 0.060589
2493.365234 0.055252
2492.860352 0.053006
2492.523438 0.049622
2492.027344 0.052523
2491.680664 0.056163
2491.193359 0.058190
2490.836914 0.058958
2490.359375 0.055341
2489.994141 0.056605
2489.525391 0.058169
2489.150391 0.061269
2488.691406 0.058158
2488.306641 0.054241
2487.856445 0.053892
2487.462891 0.053294
2487.022461 0.055300
2486.619141 0.058890
2486.187500 0.058126
2485.775391 0.059811
2485.352539 0.053863
2484.930664 0.056527
2484.517578 0.055742
2484.085938 0.060251
2483.682617 0.054315
2483.241211 0.048096
2482.846680 0.060916
2482.396484 0.055554
2482.011719 0.059016
2481.550781 0.061609
2481.175781 0.056645
2480.706055 0.060195
2480.339844 0.063242
2479.860352 0.058782
2479.503906 0.054736
2479.014648 0.063432
2478.667969 0.057557
2478.168945 0.057822
2477.832031 0.063206
2477.322266 0.053613
2476.995117 0.059422
2476.476563 0.059660
2476.158203 0.060354
2475.629883 0.055452
2475.322266 0.054685
2474.783203 0.054507
2474.485352 0.056560
2473.936523 0.051234
2473.647461 0.064561
2473.088867 0.057742
2472.810547 0.058895
2472.242188 0.052607
2471.973633 0.056529
2471.394531 0.058646
2471.135742 0.051337
2470.546875 0.057701
2470.297852 0.064984
2469.698242 0.055362
2469.459961 0.060264
2468.850586 0.054419
2468.622070 0.053192
2468.001953 0.059056
2467.784180 0.056947
2467.153320 0.060437
2466.946289 0.055524
2466.304688 0.056240
2466.107422 0.062571
2465.456055 0.058086
2465.268555 0.057855
2464.607422 0.056678
2464.429688 0.059255
2463.757813 0.054343
2463.590820 0.060185
2462.908203 0.061760
2462.751953 0.054062
2462.058594 0.052925
2461.913086 0.059692
2461.208984 0.052912
2461.073242 0.054512
2460.358398 0.058004
2460.233398 0.058260
2459.508789 0.057527
2459.394531 0.069523
2458.658203 0.056586
2458.554688 0.059647
2457.807617 0.054254
2457.713867 0.060575
2456.956055 0.057486
2456.874023 0.059155
2456.105469 0.057009
2456.033203 0.060083
2455.253906 0.054216
2455.193359 0.057725
2454.402344 0.058836
2454.352539 0.059122
2453.550781 0.060211
2453.511719 0.062395
2452.699219 0.058808
2452.670898 0.068011
2451.846680 0.058794
2451.829102 0.060026
2450.995117 0.049987
2450.988281 0.054857
2450.146484 0.058767
2450.142578 0.056253
2449.304688 0.059215
2449.290039 0.060930
2448.462891 0.055964
2448.436523 0.059044
2447.621094 0.062312
2447.583984 0.061499
2446.779297 0.059490
2446.730469 0.061023
2445.937500 0.059947
2445.876953 0.056849
2445.094727 0.053380
2445.023438 0.057297
2444.251953 0.061797
2444.169922 0.055898
2443.409180 0.060381
2443.315430 0.049880
2442.566406 0.062241
2442.460938 0.054486
2441.723633 0.061762
2441.606445 0.056781
2440.879883 0.056604
2440.751953 0.057229
2440.037109 0.058464
2439.897461 0.056293
2439.193359 0.057518
2439.041992 0.058586
2438.349609 0.057039
2438.186523 0.058111
2437.505859 0.059366
2437.331055 0.056253
2436.662109 0.053746
2436.475586 0.061771
2435.817383 0.061680
2435.619141 0.055304
2434.973633 0.056529
2434.763672 0.058056
2434.128906 0.061189
2433.907227 0.049289
2433.284180 0.058375
2433.050781 0.049738
2432.439453 0.059298
2432.194336 0.057093
2431.593750 0.060687
2431.336914 0.052937
2430.749023 0.056942
2430.479492 0.057986
2429.903320 0.053198
2429.622070 0.051991
2429.058594 0.056454
2428.764648 0.056119
2428.212891 0.062507
2427.907227 0.058864
2427.367188 0.054100
2427.048828 0.053793
2426.520508 0.055022
2426.191406 0.056998
2425.674805 0.060606
2425.333008 0.058822
2424.828125 0.059662
2424.473633 0.052835
2423.982422 0.057787
2423.615234 0.057875
2423.135742 0.057776
2422.755859 0.052351
2422.289063 0.062423
2421.897461 0.058765
2421.441406 0.064274
2421.038086 0.057374
2420.594727 0.055880
2420.177734 0.049101
2419.747070 0.055869
2419.318359 0.056429
2418.900391 0.061910
2418.458008 0.051829
2418.052734 0.057244
2417.597656 0.054568
2417.205078 0.059560
2416.737305 0.059139
2416.356445 0.061874
2415.876953 0.054083
2415.508789 0.062328
2415.015625 0.055445
2414.660156 0.057200
2414.155273 0.054515
2413.812500 0.058119
2413.293945 0.059082
2412.963867 0.061362
2412.115234 0.058097
2411.266602 0.058550
2410.416992 0.066902
2409.568359 0.060850
2408.718750 0.056194
2407.869141 0.055255
2407.019531 0.054316
2406.169922 0.060804
2405.319336 0.062184
2404.469727 0.058924
2403.619141 0.052882
2402.768555 0.059365
2401.917969 0.054253
2401.066406 0.053779
2400.215820 0.060721
2399.364258 0.062100
2398.513672 0.056528
2397.662109 0.062076
2396.810547 0.066696
2395.958008 0.058810
2395.106445 0.055095
2394.253906 0.062028
2393.402344 0.059702
2392.549805 0.056451
2391.697266 0.057366
2390.843750 0.057355
2389.991211 0.055494
2389.137695 0.063343
2388.284180 0.061944
2387.430664 0.060083
2386.577148 0.055451
2385.723633 0.059136
2384.869141 0.056353
2384.015625 0.061422
2383.161133 0.060948
2382.306641 0.061398
2381.452148 0.060925
2380.597656 0.061836
2379.742188 0.058133
2378.886719 0.058583
2378.032227 0.058571
2377.176758 0.060865
2376.320313 0.061775
2375.464844 0.057154
2374.609375 0.052996
2373.752930 0.061278
2372.896484 0.060806
2372.040039 0.058952
2371.183594 0.057559
2370.326172 0.053404
2369.469727 0.060298
2368.612305 0.057985
2367.754883 0.052913
2366.897461 0.061643
2366.040039 0.063011
2365.182617 0.060239
2364.324219 0.061147
2363.465820 0.068030
2362.607422 0.060204
2361.749023 0.061570
2360.890625 0.059721
2360.031250 0.056494
2359.172852 0.069341
2358.313477 0.062899
2357.454102 0.065182
2356.594727 0.060580
2355.735352 0.066992
2354.875000 0.060556
2354.015625 0.061462
2353.155273 0.060074
2352.294922 0.061438
2351.434570 0.049965
2350.573242 0.062788
2349.712891 0.065067
2348.851563 0.057724
2347.990234 0.061377
2347.128906 0.060449
2346.267578 0.060437
2345.406250 0.064087
2344.543945 0.065448
2343.681641 0.059944
2342.819336 0.065422
2341.957031 0.063122
2341.094727 0.057165
2340.232422 0.061268
2339.369141 0.058056
2338.505859 0.064900
2337.642578 0.063517
2336.779297 0.058479
2335.916016 0.059381
2335.051758 0.063022
2334.188477 0.063923
2333.324219 0.068019
2332.459961 0.061159
2331.595703 0.072555
2330.730469 0.062504
2329.866211 0.063860
2329.000977 0.063847
2328.135742 0.067026
2327.270508 0.067469
2326.405273 0.067000
2325.540039 0.071088
2324.673828 0.068340
2323.807617 0.067415
2322.941406 0.071956
2322.075195 0.071486
2321.208984 0.073748
2320.341797 0.069182
2319.475586 0.065528
2318.608398 0.070520
2317.741211 0.066412
2316.874023 0.067308
2316.005859 0.060929
2315.138672 0.064099
2314.270508 0.068632
2313.402344 0.065891
2312.534180 0.062244
2311.666016 0.063140
2310.797852 0.053590
2309.928711 0.064477
2309.059570 0.066280
2308.190430 0.063089
2307.321289 0.067161
2306.452148 0.068962
2305.582031 0.063959
2304.712891 0.063039
2303.842773 0.065747
2302.972656 0.060747
2302.102539 0.067534
2301.231445 0.061629
2300.361328 0.074302
2299.490234 0.060698
2298.619141 0.062045
2297.748047 0.065655
2296.876953 0.066094
2296.004883 0.066081
2295.133789 0.067878
2294.261719 0.066507
2293.389648 0.069208
2292.517578 0.066480
2291.645508 0.063302
2290.772461 0.068262
2289.899414 0.067796
2289.027344 0.068687
2288.153320 0.069576
2287.280273 0.065497
2286.407227 0.070000
2285.533203 0.069083
2284.660156 0.059589
2283.786133 0.064542
2282.911133 0.066334
2282.037109 0.065869
2281.163086 0.065856
2280.288086 0.068549
2279.413086 0.068535
2278.538086 0.064013
2277.663086 0.070310
2276.787109 0.069845
2275.912109 0.068930
2275.036133 0.066664
2274.160156 0.072955
2273.284180 0.068438
2272.408203 0.067974
2271.531250 0.069761
2270.655273 0.068847
2269.778320 0.071532
2268.901367 0.069719
2268.024414 0.063409
2267.146484 0.071939
2266.269531 0.068777
2265.391602 0.062022
2264.513672 0.068300
2263.635742 0.074127
2262.757813 0.070968
2261.878906 0.068708
2261.000000 0.067347
2260.122070 0.070027
2259.243164 0.071359
2258.363281 0.072242
2257.484375 0.074470
2256.604492 0.069521
2255.725586 0.076234
2254.845703 0.073080
2253.965820 0.072169
2253.084961 0.073947
2252.205078 0.068107
2251.324219 0.068989
2250.443359 0.069423
2249.562500 0.077021
2248.681641 0.069842
2247.800781 0.072961
2246.918945 0.071157
2246.037109 0.068905
2245.155273 0.069786
2244.273438 0.071113
2243.391602 0.078253
2242.509766 0.069743
2241.626953 0.063024
2240.744141 0.069268
2239.861328 0.069254
2238.978516 0.074153
2238.094727 0.078158
2237.211914 0.073230
2236.328125 0.079912
2235.444336 0.075432
2234.560547 0.083449
2233.675781 0.072724
2232.791992 0.068249
2231.907227 0.068235
2231.022461 0.074463
2230.137695 0.078014
2229.252930 0.073541
2228.368164 0.074418
2227.482422 0.073066
2226.596680 0.078842
2225.710938 0.072591
2224.825195 0.069014
2223.938477 0.077458
2223.052734 0.066760
2222.166016 0.074311
2221.279297 0.077410
2220.392578 0.078729
2219.505859 0.077823
2218.618164 0.072472
2217.731445 0.077347
2216.843750 0.075109
2215.956055 0.070206
2215.068359 0.073301
2214.179688 0.078616
2213.291016 0.068386
2212.403320 0.071480
2211.514648 0.079455
2210.625977 0.073226
2209.736328 0.072767
2208.847656 0.077632
2207.958008 0.073624
2207.068359 0.066958
2206.178711 0.074924
2205.289063 0.070919
2204.398438 0.069132
2203.507813 0.075321
2202.618164 0.062459
2201.727539 0.075733
2200.835938 0.077045
2199.945313 0.079686
2199.053711 0.068162
2198.162109 0.069475
2197.270508 0.070346
2196.378906 0.070331
2195.487305 0.070317
2194.594727 0.072513
2193.703125 0.072056
2192.810547 0.074251
2191.917969 0.068933
2191.024414 0.069802
2190.131836 0.073322
2189.238281 0.068007
2188.344727 0.074616
2187.451172 0.077690
2186.557617 0.077233
2185.664063 0.074570
2184.769531 0.071907
2183.875000 0.071892
2182.980469 0.074964
2182.085938 0.074067
2181.191406 0.076256
2180.295898 0.077121
2179.400391 0.069615
2178.504883 0.070482
2177.609375 0.077514
2176.713867 0.078378
2175.817383 0.068237
2174.921875 0.076585
2174.025391 0.070409
2173.128906 0.078313
2172.231445 0.076098
2171.334961 0.078281
2170.437500 0.071669
2169.540039 0.075611
2168.642578 0.067684
2167.745117 0.072503
2166.847656 0.068974
2165.949219 0.076865
2165.050781 0.075093
2164.152344 0.082980
2163.253906 0.082524
2162.354492 0.075924
2161.456055 0.073714
2160.556641 0.082911
2159.657227 0.074561
2158.757813 0.077176
2157.858398 0.076283
2156.958008 0.074952
2156.057617 0.073622
2155.157227 0.081931
2154.256836 0.073591
2153.356445 0.076642
2152.456055 0.075750
2151.554688 0.084927
2150.653320 0.077031
2149.751953 0.082704
2148.850586 0.082687
2147.948242 0.083982
2147.045898 0.080903
2146.144531 0.083509
2145.242188 0.079995
2144.338867 0.074733
2143.436523 0.079087
2142.533203 0.074702
2141.629883 0.075560
2140.726563 0.076854
2139.823242 0.078585
2138.919922 0.084679
2138.015625 0.079424
2137.111328 0.081589
2136.207031 0.086370
2135.302734 0.078502
2134.398438 0.086334
2133.493164 0.081957
2132.588867 0.086298
2131.683594 0.086280
2130.778320 0.088004
2129.872070 0.088422
2128.966797 0.081435
2128.060547 0.083595
2127.154297 0.084448
2126.248047 0.083560
2125.341797 0.087893
2124.434570 0.086135
2123.527344 0.086117
2122.620117 0.083924
2121.712891 0.089558
2120.805664 0.087801
2119.897461 0.083437
2118.990234 0.075164
2118.082031 0.086008
2117.173828 0.087727
2116.265625 0.088143
2115.356445 0.085519
2114.447266 0.088973
2113.539063 0.085049
2112.628906 0.083730
2111.719727 0.089351
2110.810547 0.088031
2109.900391 0.084977
2108.990234 0.080625
2108.080078 0.085375
2107.169922 0.087090
2106.258789 0.077541
2105.348633 0.085321
2104.437500 0.090066
2103.526367 0.087016
2102.615234 0.082670
2101.703125 0.087845
2100.791992 0.080471
2099.879883 0.088240
2098.967773 0.085627
2098.055664 0.086906
2097.142578 0.084726
2096.230469 0.084276
2095.317383 0.079073
2094.404297 0.084672
2093.490234 0.089405
2092.577148 0.086795
2091.663086 0.085481
2090.750000 0.082010
2089.835938 0.077246
2088.920898 0.083270
2088.006836 0.088428
2087.091797 0.085390
2086.177734 0.089253
2085.262695 0.093113
2084.346680 0.082319
2083.431641 0.078854
2082.515625 0.084438
2081.600586 0.085281
2080.684570 0.083971
2079.767578 0.095147
2078.851563 0.092114
2077.934570 0.084778
2077.017578 0.084760
2076.100586 0.083451
2075.183594 0.089454
2074.266602 0.093735
2073.348633 0.084687
2072.430664 0.088538
2071.512695 0.087659
2070.594727 0.085063
2069.676758 0.085045
2068.757813 0.089750
2067.838867 0.081144
2066.919922 0.086707
2066.000977 0.084972
2065.082031 0.090531
2064.162109 0.081503
2063.242188 0.083201
2062.322266 0.087900
2061.402344 0.096884
2060.481445 0.092577
2059.561523 0.084844
2058.640625 0.089538
2057.719727 0.086949
2056.798828 0.087787
2055.876953 0.086055
2054.956055 0.089461
2054.034180 0.095005
2053.112305 0.086428
2052.189453 0.091970
2051.267578 0.095372
2050.344727 0.084234
2049.421875 0.084216
2048.499023 0.093600
2047.576172 0.089734
2046.652344 0.095696
2045.729492 0.084570
2044.805664 0.094374
2043.881836 0.089230
2042.957031 0.088784
2042.033203 0.097726
2041.108398 0.091732
2040.183594 0.094272
2039.258789 0.093398
2038.333984 0.092525
2037.408203 0.097621
2036.483398 0.092059
2035.557617 0.095448
2034.630859 0.091593
2033.705078 0.089444
2032.778320 0.089424
2031.852539 0.092385
2030.925781 0.092875
2030.818359 0.093642
2029.999023 0.094153
2029.892578 0.091919
2029.071289 0.087322
2028.965820 0.097005
2028.144531 0.086455
2028.040039 0.090178
2027.216797 0.097512
2027.113281 0.102066
2026.289063 0.088129
2026.186523 0.087588
2025.361328 0.088540
2025.260742 0.086293
2024.432617 0.087248
2024.333008 0.096049
2023.503906 0.083829
2023.406250 0.096029
2022.576172 0.094877
2022.479492 0.093884
2021.647461 0.096562
2021.551758 0.094288
2020.717773 0.085487
2020.624023 0.094692
2019.789063 0.090151
2019.696289 0.093398
2018.859375 0.093962
2018.768555 0.106535
2017.929688 0.089695
2017.840820 0.098025
2017.000000 0.093505
2016.913086 0.095458
2016.070313 0.090089
2015.984375 0.089923
2015.139648 0.090074
2015.055664 0.098809
2014.209961 0.087509
2014.126953 0.102179
2013.279297 0.089193
2013.198242 0.091559
2012.348633 0.087479
2012.269531 0.094506
2011.416992 0.092984
2011.340820 0.091519
2010.486328 0.092119
2010.411133 0.090229
2009.554688 0.085312
2009.482422 0.093173
2008.623047 0.087843
2008.552734 0.102045
2007.691406 0.093768
2007.623047 0.096096
2006.759766 0.089510
2006.692383 0.100731
2005.827148 0.093736
2005.762695 0.098593
2004.894531 0.095416
2004.833008 0.096033
2003.961914 0.095824
2003.902344 0.098549
2003.029297 0.097503
2002.971680 0.095991
2002.096680 0.093247
2002.041016 0.090896
2001.163086 0.096621
2001.110352 0.101443
2000.229492 0.100418
2000.178711 0.100153
1999.295898 0.092351
1999.248047 0.090836
1998.362305 0.088947
1998.316406 0.102221
1997.427734 0.094860
1997.384766 0.092063
1996.494141 0.095267
1996.453125 0.103443
1995.559570 0.091864
1995.521484 0.097510
1994.625000 0.100313
1994.589844 0.096645
1993.689453 0.095640
1993.657227 0.105484
1992.754883 0.093508
1992.724609 0.102508
1991.819336 0.098991
1991.792969 0.099112
1990.883789 0.093475
1990.860352 0.094030
1989.948242 0.093036
1989.926758 0.093588
1989.012695 0.096825
1988.994141 0.092302
1988.076172 0.094695
1988.061523 0.105345
1987.139648 0.095523
1987.127930 0.104479
1986.203125 0.098042
1986.194336 0.101086
1985.266602 0.098870
1985.260742 0.093484
1984.330078 0.099275
1984.327148 0.099779
1983.392578 0.089543
1983.392578 0.099757
1982.458984 0.090372
1982.455078 0.098472
1981.524414 0.097111
1981.517578 0.095926
1980.589844 0.104271
1980.580078 0.102635
1979.655273 0.098765
1979.641602 0.095463
1978.720703 0.110564
1978.703125 0.094601
1977.786133 0.097043
1977.765625 0.102146
1976.850586 0.095760
1976.826172 0.100443
1975.915039 0.103335
1975.887695 0.097479
1974.979492 0.093617
1974.948242 0.108379
1974.043945 0.101190
1974.009766 0.106255
1973.108398 0.088104
1973.070313 0.101193
1972.172852 0.095254
1972.130859 0.101591
1971.236328 0.104507
1971.190430 0.106604
1970.299805 0.103225
1970.250000 0.101965
1969.363281 0.096045
1969.310547 0.104040
1968.426758 0.102346
1968.370117 0.108211
1967.490234 0.107802
1967.428711 0.096865
1966.553711 0.100625
1966.488281 0.101874
1965.616211 0.108184
1965.546875 0.107719
1964.678711 0.100589
1964.605469 0.108534
1963.741211 0.102254
1963.664063 0.100130
1962.803711 0.093401
1962.722656 0.100108
1961.866211 0.096749
1961.780273 0.096735
1960.928711 0.099676
1960.837891 0.107599
1959.990234 0.108068
1959.895508 0.105064
1959.051758 0.102163
1958.953125 0.106714
1958.113281 0.099202
1958.010742 0.094975
1957.174805 0.099604
1957.067383 0.101229
1956.236328 0.099166
1956.124023 0.104552
1955.296875 0.100829
1955.180664 0.109128
1954.357422 0.105431
1954.237305 0.104923
1953.418945 0.100792
1953.292969 0.106571
1952.479492 0.102034
1952.349609 0.113650
1951.539063 0.108313
1951.405273 0.100257
1950.599609 0.113330
1950.460938 0.104411
1949.660156 0.108274
1949.515625 0.103553
1948.719727 0.106156
1948.571289 0.108539
1947.779297 0.099005
1947.625977 0.111436
1946.838867 0.109893
1946.680664 0.108907
1945.898438 0.109873
1945.735352 0.113055
1944.957031 0.103563
1944.789063 0.109276
1944.016602 0.098514
1943.842773 0.105498
1943.075195 0.108555
1942.896484 0.112978
1942.133789 0.107279
1941.950195 0.106701
1941.192383 0.107259
1941.003906 0.103760
1940.250977 0.103469
1940.056641 0.105403
1939.308594 0.105126
1939.110352 0.109128
1938.366211 0.104269
1938.163086 0.107854
1937.424805 0.108437
1937.215820 0.107413
1936.482422 0.114277
1936.267578 0.104892
1935.539063 0.108816
1935.319336 0.108197
1934.596680 0.109633
1934.372070 0.100268
1933.654297 0.107103
1933.422852 0.115220
1932.710938 0.109593
1932.474609 0.114362
1931.767578 0.107900
1931.526367 0.105189
1930.824219 0.109553
1930.577148 0.108075
1929.880859 0.108278
1929.627930 0.108466
1928.936523 0.109512
1928.678711 0.104287
1927.993164 0.105731
1927.728516 0.105094
1927.048828 0.104040
1926.779297 0.100917
1926.104492 0.108199
1925.829102 0.108368
1925.160156 0.109014
1924.878906 0.104607
1924.215820 0.109412
1923.928711 0.112884
1923.270508 0.106469
1922.977539 0.107464
1922.326172 0.116468
1922.026367 0.110343
1921.380859 0.109351
1921.075195 0.115295
1920.435547 0.114339
1920.124023 0.104074
1919.490234 0.109311
1919.172852 0.118973
1918.543945 0.103034
1918.220703 0.109829
1917.598633 0.107602
1917.268555 0.105660
1916.652344 0.113420
1916.316406 0.108121
1915.706055 0.113399
1915.364258 0.115138
1914.759766 0.105875
1914.411133 0.106416
1913.813477 0.108773
1913.458984 0.104736
1912.866211 0.122920
1912.505859 0.112162
1911.919922 0.114565
1911.552734 0.108412
1910.972656 0.106213
1910.598633 0.117488
1910.025391 0.106610
1909.645508 0.115807
1909.078125 0.105341
1908.691406 0.112473
1908.129883 0.104905
1907.737305 0.117408
1907.182617 0.114875
1906.782227 0.111181
1906.234375 0.114021
1905.828125 0.110742
1905.286133 0.112752
1904.873047 0.117740
1904.337891 0.117306
1903.917969 0.115235
1903.389648 0.104807
1902.962891 0.113144
1902.440430 0.104788
1902.006836 0.108164
1901.492188 0.113915
1901.051758 0.115981
1900.542969 0.105580
1900.095703 0.116780
1899.593750 0.105976
1899.139648 0.106852
1898.644531 0.108034
1898.183594 0.109302
1897.695313 0.110506
1897.226563 0.112163
1896.745117 0.105916
1896.269531 0.116260
1895.794922 0.107973
1895.312500 0.111699
1894.844727 0.112935
1894.355469 0.118679
1893.894531 0.111669
1893.398438 0.107528
1892.944336 0.102932
1892.440430 0.115741
1891.994141 0.108307
1891.482422 0.109537
1891.042969 0.105382
1890.524414 0.113217
1890.091797 0.108681
1889.566406 0.111133
1889.140625 0.108661
1888.607422 0.121395
1888.189453 0.114445
1887.648438 0.118487
1887.238281 0.119399
1886.689453 0.116815
1886.286133 0.114817
1885.730469 0.125835
1885.334961 0.114381
1884.770508 0.119227
1884.382813 0.116845
1883.811523 0.113034
1883.430664 0.116409
1882.851563 0.121227
1882.477539 0.103961
1881.891602 0.113804
1881.525391 0.114294
1880.930664 0.107205
1880.572266 0.108476
1879.970703 0.113340
1879.619141 0.105972
1879.009766 0.123167
1878.666016 0.108435
1878.048828 0.118623
1877.712891 0.114208
1877.086914 0.121468
1876.759766 0.114600
1876.125977 0.118158
1875.805664 0.107133
1875.164063 0.112388
1874.852539 0.118278
1874.202148 0.121794
1873.898438 0.117016
1873.240234 0.107416
1872.943359 0.109965
1872.277344 0.114359
1871.989258 0.114904
1871.315430 0.115152
1871.035156 0.117775
1870.352539 0.115125
1870.080078 0.110729
1869.389648 0.115508
1869.125000 0.112773
1868.425781 0.115890
1868.169922 0.113991
1867.462891 0.110541
1867.214844 0.118512
1866.499023 0.121566
1866.258789 0.128397
1865.535156 0.115809
1865.303711 0.110211
1864.570313 0.111691
1864.347656 0.112666
1863.606445 0.115755
1863.391602 0.113882
1862.641602 0.117363
1862.435547 0.109323
1861.676758 0.112021
1861.479492 0.107652
1860.711914 0.114447
1860.522461 0.119590
1859.746094 0.113795
1859.565430 0.113194
1858.781250 0.120781
1858.608398 0.118479
1857.815430 0.113752
1857.651367 0.113550
1856.849609 0.121971
1856.694336 0.118831
1855.882813 0.119064
1855.736328 0.117987
1854.916992 0.119453
1854.779297 0.117959
1853.950195 0.114900
1853.821289 0.116707
1852.983398 0.117349
1852.863281 0.123207
1852.015625 0.115679
1851.905273 0.121547
1851.048828 0.118950
1850.946289 0.115809
1850.081055 0.123865
1849.988281 0.116190
1849.113281 0.120550
1849.029297 0.122683
1848.145508 0.118470
1848.070313 0.118987
1847.176758 0.116802
1847.111328 0.119774
1846.208008 0.120069
1846.151367 0.117302
1845.239258 0.127446
1845.192383 0.127454
1844.270508 0.124955
1844.232422 0.120096
1843.301758 0.122054
1843.272461 0.122916
1842.332031 0.124496
1842.312500 0.119632
1841.362305 0.125294
1841.352539 0.117976
1840.392578 0.124448
1840.391602 0.125269
1839.430664 0.121550
1839.422852 0.127273
1838.470703 0.132201
1838.452148 0.134153
1837.508789 0.121913
1837.481445 0.128431
1836.547852 0.125583
1836.510742 0.130433
1835.586914 0.121045
1835.540039 0.128777
1834.625000 0.131688
1834.568359 0.131995
1833.663086 0.127971
1833.597656 0.119782
1832.701172 0.135328
1832.625000 0.133962
1831.739258 0.130381
1831.653320 0.134742
1830.777344 0.131996
1830.681641 0.138767
1829.814453 0.130741
1829.708984 0.132243
1828.851563 0.123749
1828.736328 0.132212
1827.888672 0.132329
1827.763672 0.126098
1826.925781 0.135580
1826.790039 0.141067
1825.962891 0.133096
1825.817383 0.136980
1824.999023 0.132252
1824.843750 0.126818
1824.035156 0.130588
1823.869141 0.132054
1823.071289 0.136702
1822.895508 0.137692
1822.107422 0.132174
1821.920898 0.130371
1821.143555 0.136649
1820.947266 0.140459
1820.178711 0.132123
1819.971680 0.134355
1819.214844 0.124327
1818.997070 0.129468
1818.250000 0.139022
1818.021484 0.126605
1817.285156 0.126322
1817.046875 0.135471
1816.319336 0.123436
1816.070313 0.133417
1815.354492 0.137306
1815.094727 0.124089
1814.388672 0.129925
1814.119141 0.130928
1813.422852 0.129900
1813.142578 0.129281
1812.457031 0.133142
1812.166016 0.128846
1811.491211 0.132299
1811.188477 0.125988
1810.525391 0.128599
1810.211914 0.128783
1809.558594 0.131431
1809.234375 0.131578
1808.591797 0.135486
1808.256836 0.125089
1807.625000 0.132603
1807.279297 0.131514
1806.658203 0.132169
1806.300781 0.124626
1805.690430 0.126026
1805.322266 0.131450
1804.723633 0.127632
1804.343750 0.128193
1803.755859 0.121084
1803.365234 0.130177
1802.788086 0.137364
1802.386719 0.126519
1801.820313 0.128779
1801.407227 0.127697
1800.851563 0.128347
1800.427734 0.125250
1799.883789 0.124248
1799.448242 0.131259
1798.915039 0.135220
1798.467773 0.128812
1797.946289 0.130307
1797.488281 0.129183
1796.977539 0.132724
1796.507813 0.136393
1796.007813 0.127406
1795.527344 0.125499
1795.039063 0.132672
1794.545898 0.137935
1794.069336 0.137121
1793.564453 0.126644
1793.099609 0.139942
1792.583008 0.120986
1792.129883 0.144388
1791.601563 0.136227
1791.160156 0.129314
1790.620117 0.134185
1790.189453 0.134167
1789.637695 0.136963
1789.218750 0.140238
1788.655273 0.126891
1788.248047 0.138991
1787.672852 0.130473
1787.277344 0.140589
1786.690430 0.136863
1786.306641 0.137717
1785.707031 0.133619
1785.334961 0.131191
1784.723633 0.139604
1784.364258 0.139287
1783.740234 0.135559
1783.392578 0.136823
1782.756836 0.142342
1782.420898 0.140855
1781.772461 0.135492
1781.448242 0.141233
1780.788086 0.143875
1780.476563 0.134713
1779.803711 0.139833
1779.503906 0.136715
1778.819336 0.149412
1778.531250 0.139121
1777.833984 0.142567
1777.558594 0.137877
1776.848633 0.141331
1776.585938 0.139471
1775.863281 0.143698
1775.612305 0.142687
1774.877930 0.141661
1774.638672 0.147927
1773.891602 0.138426
1773.666016 0.136147
1772.905273 0.136791
1772.691406 0.151919
1771.918945 0.145555
1771.717773 0.149054
1770.931641 0.140925
1770.744141 0.151515
1769.945313 0.144541
1769.769531 0.149479
1768.958008 0.155037
1768.794922 0.157833
1767.970703 0.152577
1767.820313 0.154199
1766.982422 0.153356
1766.845703 0.144576
1765.995117 0.158989
1765.870117 0.154122
1765.006836 0.154104
1764.894531 0.153286
1764.018555 0.154478
1763.919922 0.152050
1763.029297 0.161724
1762.944336 0.161189
1762.041016 0.154416
1761.967773 0.163941
1761.051758 0.162064
1760.992188 0.154329
1760.062500 0.164456
1760.015625 0.155487
1759.072266 0.159171
1759.039063 0.149868
1758.083008 0.160351
1758.062500 0.151823
1757.092773 0.168799
1757.085938 0.155370
1756.108398 0.149790
1756.101563 0.161306
1755.131836 0.161466
1755.111328 0.170822
1754.154297 0.156590
1754.120117 0.149680
1753.176758 0.161805
1753.128906 0.154817
1752.198242 0.152897
1751.220703 0.166176
1750.242188 0.162514
1749.263672 0.161675
1748.285156 0.169301
1747.306641 0.161610
1746.327148 0.159966
1745.348633 0.161948
1744.369141 0.163929
1743.389648 0.163091
1742.409180 0.162655
1741.429688 0.169063
1740.449219 0.169432
1739.468750 0.161752
1738.488281 0.160513
1737.507813 0.170134
1736.526367 0.161655
1735.544922 0.152375
1734.563477 0.155158
1733.582031 0.167183
1732.600586 0.157908
1731.618164 0.159081
1730.636719 0.161459
1729.654297 0.155403
1728.671875 0.158985
1727.688477 0.154537
1726.706055 0.163335
1725.722656 0.158888
1724.739258 0.163269
1723.755859 0.158423
1722.771484 0.154782
1721.788086 0.163571
1720.803711 0.156323
1719.819336 0.167111
1718.834961 0.161067
1717.850586 0.159833
1716.865234 0.162203
1715.879883 0.152160
1714.894531 0.158935
1713.909180 0.155700
1712.923828 0.160071
1711.937500 0.167640
1710.951172 0.152405
1709.964844 0.157573
1708.978516 0.170337
1707.991211 0.159508
1707.004883 0.161874
1706.017578 0.167435
1705.030273 0.160210
1704.042969 0.160976
1703.054688 0.167333
1702.066406 0.168497
1701.078125 0.163672
1700.089844 0.169625
1699.101563 0.160812
1698.113281 0.166763
1697.124023 0.167926
1696.134766 0.163904
1695.145508 0.165066
1694.155273 0.166228
1693.166016 0.166593
1692.175781 0.169747
1691.185547 0.159354
1690.195313 0.162109
1689.205078 0.158890
1688.213867 0.165228
1687.222656 0.151660
1686.231445 0.159589
1685.240234 0.169105
1684.249023 0.158728
1683.256836 0.159093
1682.264648 0.157867
1681.272461 0.159425
1680.280273 0.155020
1679.287109 0.151014
1678.294922 0.160916
1677.301758 0.148569
1676.308594 0.156878
1675.315430 0.162405
1674.321289 0.161975
1673.327148 0.155591
1672.333008 0.152781
1671.338867 0.161875
1670.344727 0.151925
1669.349609 0.155859
1668.355469 0.160189
1667.360352 0.153020
1666.365234 0.166068
1665.369141 0.147806
1664.374023 0.161642
1663.377930 0.155667
1662.381836 0.156823
1661.384766 0.160354
1660.388672 0.163487
1659.391602 0.158309
1658.395508 0.161837
1657.397461 0.162199
1656.400391 0.158606
1655.403320 0.164109
1654.405273 0.171983
1653.407227 0.168390
1652.409180 0.168750
1651.411133 0.172271
1650.412109 0.168680
1649.413086 0.168250
1648.414063 0.162687
1647.415039 0.159495
1646.416016 0.159857
1645.416016 0.163770
1644.416016 0.166498
1643.416016 0.169224
1642.416016 0.173133
1641.415039 0.175069
1640.415039 0.162811
1639.414063 0.167507
1638.413086 0.175354
1637.411133 0.172165
1636.410156 0.167403
1635.408203 0.174457
1634.406250 0.171664
1633.404297 0.182257
1632.402344 0.173561
1631.399414 0.167622
1630.396484 0.169948
1629.393555 0.185252
1628.390625 0.185213
1627.387695 0.172594
1626.383789 0.178061
1625.379883 0.170950
1624.375977 0.178379
1623.372070 0.177556
1622.367188 0.177912
1621.362305 0.182979
1620.357422 0.171557
1619.352539 0.188398
1618.347656 0.181688
1617.341797 0.187535
1616.335938 0.182004
1615.330078 0.182358
1614.324219 0.192514
1613.318359 0.176794
1612.311523 0.177149
1611.304688 0.181814
1610.297852 0.185693
1609.291016 0.188788
1608.283203 0.186790
1607.275391 0.193015
1606.267578 0.187103
1605.259766 0.195282
1604.251953 0.196024
1603.243164 0.189333
1602.234375 0.191249
1601.225586 0.199420
1600.216797 0.186477
1599.207031 0.195818
1598.198242 0.197340
1597.188477 0.198080
1596.178711 0.200382
1595.167969 0.197997
1594.158203 0.191708
1593.147461 0.192058
1592.136719 0.191628
1591.125977 0.192368
1590.114258 0.197399
1589.103516 0.185266
1588.091797 0.192636
1587.080078 0.191036
1586.067383 0.189047
1585.055664 0.191345
1584.042969 0.181954
1583.030273 0.187759
1582.017578 0.183435
1581.003906 0.191573
1579.991211 0.185694
1578.977539 0.187990
1577.963867 0.186783
1576.949219 0.181686
1575.935547 0.179702
1574.920898 0.174609
1573.906250 0.178849
1572.891602 0.191250
1571.876953 0.181494
1570.861328 0.178347
1569.845703 0.179086
1568.830078 0.176329
1567.814453 0.184058
1566.797852 0.180913
1565.782227 0.170783
1564.765625 0.185882
1563.749023 0.187006
1562.731445 0.180760
1561.714844 0.172578
1560.697266 0.180296
1559.679688 0.186072
1558.662109 0.177894
1557.643555 0.167394
1556.625000 0.178206
1555.607422 0.166161
1554.587891 0.161479
1553.569336 0.178480
1552.549805 0.174571
1551.531250 0.181113
1550.511719 0.175657
1549.491211 0.172912
1548.471680 0.170168
1547.451172 0.165105
1546.430664 0.177828
1545.410156 0.172765
1544.389648 0.172342
1543.368164 0.168056
1542.346680 0.177676
1541.325195 0.181114
1540.303711 0.172581
1539.282227 0.179879
1538.259766 0.180998
1537.237305 0.173243
1536.214844 0.172820
1535.191406 0.179725
1534.168945 0.178530
1533.145508 0.172709
1532.122070 0.188860
1531.098633 0.172250
1530.074219 0.159114
1529.050781 0.166784
1528.026367 0.189469
1527.000977 0.169023
1525.976563 0.174376
1524.951172 0.177802
1523.926758 0.174686
1522.901367 0.187343
1521.875000 0.174611
1520.849609 0.183033
1519.823242 0.184916
1518.796875 0.181802
1517.770508 0.183300
1516.743164 0.186719
1515.716797 0.181301
1514.689453 0.181262
1513.662109 0.188902
1512.634766 0.189629
1511.606445 0.181529
1510.578125 0.184560
1509.549805 0.190274
1508.521484 0.194453
1507.493164 0.179840
1506.463867 0.195519
1505.434570 0.195477
1504.405273 0.185088
1503.375977 0.199607
1502.345703 0.190755
1501.315430 0.197990
1500.285156 0.178420
1499.254883 0.189100
1498.223633 0.185232
1497.193359 0.195141
1496.162109 0.190508
1495.130859 0.195057
1494.098633 0.200750
1493.067383 0.202619
1492.035156 0.188051
1491.002930 0.199856
1489.969727 0.192936
1488.937500 0.181436
1487.904297 0.185215
1486.871094 0.206938
1485.837891 0.196205
1484.803711 0.180134
1483.770508 0.183529
1482.736328 0.206759
1481.702148 0.196799
1480.666992 0.197519
1479.632813 0.192901
1478.597656 0.206199
1477.562500 0.192437
1476.527344 0.202681
1475.491211 0.191972
1474.455078 0.195739
1473.418945 0.205976
1472.382813 0.203267
1471.346680 0.200559
1470.309570 0.194047
1469.272461 0.197049
1468.235352 0.201570
1467.198242 0.200385
1466.160156 0.191598
1465.122070 0.205239
1464.083984 0.188095
1463.045898 0.201731
1462.006836 0.206245
1460.968750 0.195567
1459.929688 0.202738
1458.889648 0.196621
1457.850586 0.201512
1456.810547 0.210194
1455.771484 0.205597
1454.730469 0.197967
1453.690430 0.209678
1452.649414 0.205842
1451.609375 0.203144
1450.568359 0.206889
1449.526367 0.208738
1448.485352 0.212101
1447.443359 0.205617
1446.401367 0.204058
1445.359375 0.212719
1444.316406 0.211159
1443.274414 0.209221
1442.231445 0.208797
1441.188477 0.226148
1440.144531 0.219671
1439.101563 0.210551
1438.057617 0.217307
1437.013672 0.224439
1435.968750 0.228923
1434.924805 0.237937
1433.879883 0.246570
1432.834961 0.263881
1431.790039 0.264201
1430.744141 0.264521
1429.698242 0.265594
1428.653320 0.274211
1427.606445 0.278676
1426.560547 0.288418
1425.513672 0.287224
1424.466797 0.281508
1423.419922 0.280316
1422.373047 0.286658
1421.325195 0.272661
1420.277344 0.266200
1419.229492 0.262377
1418.181641 0.263072
1417.132813 0.261886
1416.084961 0.266719
1415.036133 0.270421
1413.986328 0.265097
1412.937500 0.259024
1411.887695 0.279639
1410.837891 0.271686
1409.788086 0.285151
1408.738281 0.287342
1407.687500 0.281271
1406.636719 0.295851
1405.585938 0.294660
1404.534180 0.290467
1403.483398 0.285525
1402.431641 0.280585
1401.379883 0.285774
1400.327148 0.282711
1399.275391 0.271028
1398.222656 0.269469
1397.169922 0.258169
1396.117188 0.265604
1395.063477 0.260302
1394.009766 0.272601
1392.956055 0.265802
1391.902344 0.257509
1390.848633 0.254833
1389.793945 0.265626
1388.739258 0.266689
1387.684570 0.279344
1386.628906 0.259841
1385.574219 0.282585
1384.518555 0.282148
1383.462891 0.305624
1382.406250 0.311159
1381.350586 0.318933
1380.293945 0.327450
1379.237305 0.327004
1378.179688 0.350443
1377.123047 0.347380
1376.065430 0.355510
1375.007813 0.357669
1373.949219 0.365047
1372.891602 0.359001
1371.833008 0.349976
1370.774414 0.343936
1369.715820 0.328958
1368.656250 0.321808
1367.596680 0.290456
1366.537109 0.285179
1365.477539 0.276555
1364.417969 0.258631
1363.357422 0.249272
1362.296875 0.238429
1361.236328 0.245814
1360.174805 0.237208
1359.113281 0.241615
1358.052734 0.236730
1356.990234 0.227388
1355.928711 0.237367
1354.866211 0.226173
1353.803711 0.224637
1352.741211 0.226814
1351.678711 0.220083
1350.615234 0.230423
1349.551758 0.232597
1348.488281 0.240704
1347.424805 0.229526
1346.360352 0.236519
1345.295898 0.239431
1344.231445 0.238636
1343.166992 0.241176
1342.101563 0.226677
1341.036133 0.233291
1339.970703 0.234720
1338.905273 0.239109
1337.838867 0.241275
1336.772461 0.239001
1335.706055 0.238947
1334.639648 0.251837
1333.572266 0.246604
1332.504883 0.259855
1331.437500 0.250558
1330.370117 0.256783
1329.302734 0.262266
1328.234375 0.259991
1327.166016 0.261778
1326.096680 0.259504
1325.028320 0.266458
1323.958984 0.270088
1322.889648 0.249369
1321.820313 0.267384
1320.750000 0.234139
1319.679688 0.244776
1318.609375 0.243984
1317.539063 0.256457
1316.468750 0.254188
1315.397461 0.255236
1314.326172 0.245972
1313.254883 0.240027
1312.182617 0.230403
1311.142578 0.238814
1311.110352 0.228050
1310.069336 0.232874
1310.038086 0.236142
1308.997070 0.222154
1308.965820 0.216608
1307.923828 0.224678
1307.892578 0.222820
1306.851563 0.221318
1306.820313 0.232339
1305.778320 0.227517
1305.747070 0.218698
1304.704102 0.210194
1304.672852 0.212411
1303.630859 0.207942
1303.599609 0.220456
1302.557617 0.222954
1302.525391 0.202416
1301.483398 0.216661
1301.451172 0.220744
1300.409180 0.213674
1300.376953 0.216298
1299.334961 0.213626
1299.301758 0.209650
1298.259766 0.220916
1298.227539 0.202270
1297.185547 0.224902
1297.152344 0.215814
1296.110352 0.213480
1296.076172 0.217610
1295.035156 0.217098
1295.000977 0.226743
1293.959961 0.217416
1293.924805 0.223768
1292.883789 0.224697
1292.848633 0.223360
1291.808594 0.216353
1291.772461 0.220615
1290.732422 0.222913
1290.695313 0.243647
1289.656250 0.242300
1289.618164 0.233335
1288.580078 0.242256
1288.541016 0.232549
1287.502930 0.251740
1287.463867 0.255929
1286.426758 0.250595
1286.386719 0.255138
1285.349609 0.254579
1285.308594 0.251054
1284.272461 0.247207
1284.230469 0.240386
1283.195313 0.250824
1283.152344 0.240331
1282.118164 0.233938
1282.073242 0.246128
1281.040039 0.243046
1280.994141 0.240953
1279.961914 0.223239
1279.915039 0.235780
1278.883789 0.228321
1278.835938 0.223300
1277.805664 0.219134
1277.755859 0.215576
1276.727539 0.213973
1276.676758 0.212604
1275.648438 0.219053
1275.596680 0.217303
1274.569336 0.215722
1274.515625 0.208855
1273.490234 0.221166
1273.435547 0.207712
1272.411133 0.210892
1272.354492 0.206935
1271.332031 0.207199
1271.273438 0.210536
1270.251953 0.201680
1270.191406 0.207569
1269.171875 0.210045
1269.110352 0.208980
1268.091797 0.204893
1268.028320 0.210755
1267.011719 0.210333
1266.946289 0.196854
1265.931641 0.208103
1265.864258 0.208472
1264.850586 0.206970
1264.781250 0.208424
1263.769531 0.209486
1263.698242 0.193076
1262.688477 0.212366
1262.615234 0.202501
1261.607422 0.198464
1261.532227 0.211557
1260.526367 0.199521
1260.448242 0.203499
1259.444336 0.205319
1259.364258 0.202361
1258.362305 0.202000
1258.280273 0.209228
1257.280273 0.203785
1257.196289 0.210271
1256.198242 0.198280
1256.111328 0.205494
1255.115234 0.196421
1255.026367 0.202538
1254.033203 0.214237
1253.941406 0.211579
1252.950195 0.207276
1252.856445 0.204988
1251.867188 0.206145
1251.770508 0.200944
1250.783203 0.203557
1250.684570 0.207800
1249.700195 0.198786
1249.598633 0.199035
1248.616211 0.205302
1248.511719 0.204799
1247.532227 0.213270
1247.425781 0.206566
1246.448242 0.207044
1246.338867 0.208696
1245.364258 0.205550
1245.250977 0.200665
1244.279297 0.208058
1244.164063 0.200256
1243.195313 0.213110
1243.076172 0.211090
1242.110352 0.212707
1241.988281 0.216843
1241.024414 0.223573
1240.900391 0.210992
1239.939453 0.223894
1239.812500 0.220729
1238.853516 0.216948
1238.723633 0.213793
1237.768555 0.227080
1237.634766 0.221351
1236.682617 0.229943
1236.544922 0.217678
1235.595703 0.215372
1235.456055 0.212196
1234.509766 0.217510
1234.366211 0.224455
1233.422852 0.221826
1233.276367 0.218250
1232.336914 0.219606
1232.186523 0.222180
1231.250000 0.224283
1231.095703 0.225746
1230.162109 0.211178
1230.004883 0.218821
1229.075195 0.203519
1228.914063 0.202498
1227.987305 0.215813
1227.823242 0.210043
1226.899414 0.206343
1226.731445 0.212162
1225.811523 0.204854
1225.639648 0.203440
1224.723633 0.207353
1224.547852 0.208089
1223.634766 0.209126
1223.456055 0.215626
1222.546875 0.213434
1222.363281 0.203298
1221.458008 0.205061
1221.270508 0.209027
1220.368164 0.217338
1220.177734 0.213670
1219.279297 0.211864
1219.084961 0.209290
1218.189453 0.225945
1217.991211 0.211405
1217.100586 0.213593
1216.897461 0.215684
1216.010742 0.218258
1215.803711 0.227894
1214.919922 0.222921
1214.708984 0.224596
1213.830078 0.231923
1213.614258 0.230310
1212.739258 0.244902
1212.519531 0.238904
1211.648438 0.239430
1211.424805 0.234164
1210.557617 0.245532
1210.329102 0.251398
1209.466797 0.241869
1209.234375 0.254579
1208.375977 0.263511
1208.138672 0.259560
1207.284180 0.260931
1207.041992 0.248701
1206.192383 0.260158
1205.946289 0.250082
1205.100586 0.252160
1204.849609 0.247145
1204.007813 0.251028
1203.752930 0.244210
1202.916016 0.244480
1202.655273 0.243433
1201.823242 0.243711
1201.558594 0.241578
1200.730469 0.245108
1200.460938 0.245475
1199.637695 0.247948
1199.362305 0.248651
1198.543945 0.255839
1198.264648 0.248952
1197.451172 0.255428
1197.166016 0.260745
1196.357422 0.257904
1196.067383 0.267506
1195.263672 0.269755
1194.968750 0.276417
1194.168945 0.280160
1193.870117 0.267738
1193.075195 0.278663
1192.770508 0.280951
1191.980469 0.298073
1191.670898 0.289853
1190.885742 0.290087
1190.570313 0.280460
1189.791016 0.292913
1189.470703 0.287923
1188.696289 0.298980
1188.370117 0.289289
1187.600586 0.293520
1187.269531 0.273451
1186.504883 0.276899
1186.167969 0.276969
1185.409180 0.261365
1185.067383 0.252187
1184.313477 0.261674
1183.965820 0.247471
1183.216797 0.245070
1182.864258 0.219484
1182.121094 0.234588
1181.761719 0.218358
1181.024414 0.222312
1180.659180 0.221885
1179.927734 0.213277
1179.556641 0.211099
1178.830078 0.218989
1178.454102 0.214626
1177.733398 0.199532
1177.351563 0.206349
1176.635742 0.199493
1176.248047 0.197362
1175.538086 0.210954
1175.144531 0.198387
1174.440430 0.199056
1174.040039 0.192622
1173.341797 0.196862
1172.936523 0.198293
1172.243164 0.195027
1171.832031 0.187530
1171.145508 0.193194
1170.727539 0.188199
1170.045898 0.207158
1169.622070 0.193510
1168.947266 0.197066
1168.517578 0.189894
1167.848633 0.191286
1167.412109 0.186280
1166.749023 0.192683
1166.306641 0.180884
1165.649414 0.185112
1165.200195 0.185834
1164.549805 0.185793
1164.093750 0.181154
1163.449219 0.190060
1162.987305 0.190380
1162.348633 0.184644
1161.880859 0.188552
1161.249023 0.174930
1160.773438 0.187082
1160.147461 0.183138
1159.666016 0.182762
1159.046875 0.183819
1158.558594 0.189485
1157.946289 0.187723
1157.451172 0.184455
1156.844727 0.192701
1156.342773 0.176578
1155.743164 0.198393
1155.234375 0.178672
1154.641602 0.172217
1154.125977 0.184322
1153.539063 0.182564
1153.017578 0.183566
1152.436523 0.192191
1151.908203 0.188501
1151.334961 0.185354
1150.798828 0.186678
1150.231445 0.179236
1149.689453 0.183434
1149.128906 0.194223
1148.579102 0.193696
1148.026367 0.193469
1147.468750 0.190452
1146.922852 0.187710
1146.358398 0.191472
1145.819336 0.189460
1145.248047 0.179351
1144.715820 0.187636
1144.136719 0.190669
1143.611328 0.199033
1143.025391 0.190978
1142.506836 0.185061
1141.914063 0.195546
1141.403320 0.177880
1140.801758 0.190886
1140.297852 0.199629
1139.689453 0.189066
1139.193359 0.190306
1138.577148 0.183701
1138.088867 0.185984
1137.464844 0.182948
1136.983398 0.193442
1136.351563 0.186093
1135.877930 0.183413
1135.239258 0.181796
1134.771484 0.184803
1134.125000 0.194861
1133.666016 0.183696
1133.011719 0.187375
1132.559570 0.187939
1131.897461 0.190163
1131.453125 0.184693
1130.783203 0.191533
1130.346680 0.188577
1129.668945 0.190424
1129.240234 0.179985
1128.553711 0.191793
1128.132813 0.188502
1127.439453 0.194223
1127.025391 0.190958
1126.324219 0.186395
1125.917969 0.189139
1125.208008 0.192714
1124.810547 0.197648
1124.092773 0.188779
1123.702148 0.207221
1122.976563 0.189086
1122.594727 0.200772
1121.859375 0.191867
1121.486328 0.201088
1120.743164 0.196766
1120.377930 0.198913
1119.625977 0.211198
1119.268555 0.198517
1118.508789 0.209028
1118.159180 0.202034
1117.391602 0.198034
1117.050781 0.204483
1116.273438 0.202220
1115.940430 0.198753
1115.155273 0.195114
1114.831055 0.202268
1114.037109 0.192950
1113.721680 0.192276
1112.918945 0.181265
1112.611328 0.190815
1111.799805 0.189330
1111.500977 0.192909
1110.680664 0.184701
1110.389648 0.182924
1109.561523 0.187475
1109.279297 0.183598
1108.441406 0.175803
1108.167969 0.180010
1107.321289 0.184213
1107.056641 0.178199
1106.201172 0.179238
1105.945313 0.171775
1105.081055 0.172505
1104.833984 0.176353
1103.959961 0.170351
1103.721680 0.172415
1102.838867 0.171013
1102.609375 0.170252
1101.717773 0.163583
1101.497070 0.168799
1100.595703 0.165302
1100.384766 0.166992
1099.473633 0.170184
1099.271484 0.173693
1098.351563 0.163463
1098.158203 0.170468
1097.229492 0.169045
1097.044922 0.169725
1096.106445 0.171112
1095.931641 0.170045
1094.983398 0.162288
1094.818359 0.165052
1093.860352 0.169271
1093.704102 0.171393
1092.737305 0.169230
1092.589844 0.170296
1091.613281 0.168837
1091.475586 0.167075
1090.489258 0.169146
1090.360352 0.157840
1089.364258 0.169455
1089.246094 0.163115
1088.240234 0.174324
1088.130859 0.162021
1087.115234 0.167968
1087.015625 0.167293
1085.989258 0.158111
1085.900391 0.158065
1084.864258 0.168586
1084.784180 0.156972
1083.738281 0.170647
1083.667969 0.160475
1082.612305 0.159044
1082.551758 0.165743
1081.486328 0.166009
1081.435547 0.165356
1080.359375 0.167718
1080.318359 0.166029
1079.232422 0.169077
1079.202148 0.174471
1078.105469 0.169035
1078.084961 0.166314
1076.977539 0.162345
1076.966797 0.153571
1075.849609 0.167552
1075.849609 0.156010
1074.731445 0.166461
1074.721680 0.157390
1073.613281 0.166070
1073.593750 0.166884
1072.495117 0.172320
1072.464844 0.161559
1071.376953 0.161173
1071.335938 0.168433
1070.257813 0.161845
1070.207031 0.170836
1069.138672 0.168510
1069.077148 0.167650
1068.019531 0.157549
1067.948242 0.163418
1066.900391 0.156812
1066.817383 0.172454
1065.781250 0.166645
1065.687500 0.170316
1064.661133 0.160622
1064.556641 0.161900
1063.541016 0.165872
1063.425781 0.176859
1062.419922 0.174640
1062.294922 0.167747
1061.299805 0.171788
1061.163086 0.160035
1060.178711 0.162250
1060.032227 0.175680
1059.057617 0.161865
1058.899414 0.175984
1057.936523 0.168516
1057.767578 0.170017
1056.815430 0.169185
1056.634766 0.180076
1055.693359 0.170205
1055.501953 0.170977
1054.571289 0.177202
1054.369141 0.171978
1053.449219 0.177517
1053.235352 0.177503
1052.327148 0.169397
1052.101563 0.177111
1051.204102 0.164794
1050.967773 0.168717
1050.081055 0.169678
1049.833984 0.174934
1048.958008 0.172804
1048.699219 0.179410
1047.834961 0.169608
1047.564453 0.169284
1046.710938 0.176595
1046.428711 0.174107
1045.586914 0.169187
1045.293945 0.182401
1044.462891 0.180733
1044.158203 0.177492
1043.338867 0.181748
1043.021484 0.184045
1042.213867 0.176098
1041.885742 0.177749
1041.089844 0.181673
1040.749023 0.178051
1039.964844 0.179531
1039.612305 0.179741
1038.838867 0.177391
1038.474609 0.182124
1037.713867 0.183663
1037.337891 0.183465
1036.587891 0.173813
1036.200195 0.177524
1035.461914 0.183937
1035.061523 0.190651
1034.335938 0.181447
1033.923828 0.182632
1033.209961 0.180359
1032.785156 0.185357
1032.083008 0.190475
1031.646484 0.190852
1030.956055 0.179234
1030.506836 0.188379
1029.829102 0.187596
1029.367188 0.187638
1028.701172 0.194206
1028.227539 0.184476
1027.574219 0.189267
1027.087891 0.195847
1026.446289 0.185730
1025.947266 0.190954
1025.318359 0.194784
1024.806641 0.197476
1024.189453 0.187751
1023.666016 0.186016
1023.061523 0.197149
1022.524414 0.191844
1021.932617 0.194662
1021.382813 0.191104
1020.803711 0.185537
1020.241211 0.194510
1019.674805 0.195978
1019.098633 0.188588
1018.544922 0.184761
1017.957031 0.196482
1017.415039 0.180183
1016.813477 0.189872
1016.285156 0.184334
1015.670898 0.181885
1015.155273 0.186739
1014.527344 0.186324
1014.024414 0.185304
1013.383789 0.185931
1012.894531 0.190499
1012.240234 0.178641
1011.763672 0.179646
1011.095703 0.190662
1010.631836 0.187978
1009.951172 0.191647
1009.500977 0.188636
1008.806641 0.185739
1008.369141 0.193129
1007.662109 0.188792
1007.237305 0.186814
1006.516602 0.195632
1006.105469 0.195138
1005.371094 0.193859
1004.972656 0.190220
1004.224609 0.205514
1003.840820 0.200630
1003.079102 0.199954
1002.708008 0.194667
1001.932617 0.205407
1001.575195 0.194975
1000.785156 0.198818
1000.441406 0.207813
999.638672 0.211147
999.307617 0.211946
998.491211 0.218312
998.173828 0.211553
997.342773 0.211724
997.040039 0.206639
996.195313 0.205484
995.906250 0.214595
995.046875 0.214362
994.771484 0.213159
993.898438 0.191983
993.636719 0.213809
992.749023 0.196740
992.501953 0.202294
991.599609 0.196689
991.367188 0.198429
990.450195 0.179136
990.231445 0.193523
989.300781 0.192126
989.095703 0.188966
987.959961 0.192052
986.824219 0.192359
985.687500 0.187805
984.550781 0.188460
983.414063 0.197095
982.277344 0.188033
981.139648 0.186606
980.001953 0.192462
978.864258 0.204556
977.726563 0.186488
976.587891 0.188874
975.449219 0.192646
974.310547 0.193298
973.171875 0.197759
972.032227 0.201526
970.893555 0.196637
969.752930 0.203864
968.613281 0.210049
967.473633 0.207929
966.333008 0.217570
965.192383 0.216140
964.050781 0.217132
962.910156 0.226073
961.768555 0.216694
960.626953 0.219758
959.485352 0.217293
958.342773 0.214829
957.200195 0.190266
956.057617 0.191952
954.915039 0.187424
953.771484 0.192905
952.628906 0.191829
951.485352 0.177301
950.340820 0.182781
949.197266 0.176880
948.052734 0.177877
946.908203 0.174048
945.762695 0.178490
944.618164 0.178452
943.472656 0.181858
942.327148 0.180098
941.181641 0.173518
940.035156 0.183118
938.888672 0.181014
937.742188 0.182696
936.595703 0.173025
935.448242 0.185713
934.301758 0.179828
933.154297 0.174289
932.005859 0.189718
930.858398 0.191739
929.709961 0.184827
928.561523 0.196466
927.413086 0.195050
926.263672 0.205994
925.114258 0.218994
923.964844 0.211740
922.815430 0.200715
921.665039 0.206503
920.514648 0.191369
919.364258 0.199214
918.213867 0.197457
917.062500 0.201528
915.911133 0.200114
914.759766 0.204867
913.608398 0.205850
912.456055 0.204436
911.303711 0.191040
910.151367 0.203663
908.999023 0.201908
907.845703 0.210076
906.692383 0.214478
905.539063 0.211696
904.385742 0.216437
903.231445 0.220834
902.077148 0.236167
900.922852 0.234065
899.768555 0.235381
898.613281 0.233623
897.458008 0.238353
896.302734 0.234546
895.146484 0.226644
893.991211 0.233762
892.834961 0.238488
891.678711 0.254809
890.521484 0.266009
889.364258 0.281294
888.207031 0.295210
887.049805 0.321388
885.892578 0.352667
884.734375 0.360426
883.576172 0.359326
882.417969 0.346308
881.258789 0.328530
880.099609 0.325055
878.940430 0.295719
877.781250 0.300417
876.621094 0.291508
875.461914 0.286684
874.301758 0.250921
873.140625 0.242369
871.980469 0.239257
870.819336 0.222556
869.658203 0.228962
868.496094 0.210912
867.334961 0.212224
866.172852 0.210141
865.010742 0.215865
863.847656 0.209370
862.685547 0.199825
861.522461 0.216063
860.359375 0.205164
859.195313 0.199017
858.031250 0.201007
856.867188 0.200624
855.703125 0.213794
854.539063 0.204601
853.374023 0.216410
852.208984 0.203496
851.043945 0.212930
849.877930 0.214576
848.711914 0.215206
847.545898 0.222601
846.379883 0.225935
845.212891 0.224871
844.046875 0.230907
842.879883 0.240997
841.711914 0.252096
840.544922 0.271974
839.376953 0.283061
838.208008 0.313393
837.040039 0.348775
835.871094 0.396970
834.702148 0.461342
833.533203 0.536146
832.364258 0.653759
831.194336 0.782450
830.024414 0.888156
828.854492 0.977633
827.683594 1.000000
826.513672 0.990682
825.342773 0.912642
824.170898 0.817795
823.000000 0.719623
821.828125 0.637990
820.656250 0.567838
819.483398 0.503437
818.311523 0.446803
817.138672 0.389521
815.965820 0.352778
814.791992 0.329165
813.619141 0.319680
812.445313 0.294404
811.270508 0.287283
810.096680 0.280837
808.921875 0.273386
807.747070 0.268289
806.572266 0.256144
805.396484 0.244676
804.221680 0.244957
803.045898 0.236181
801.869141 0.226402
800.693359 0.234064
799.516602 0.242729
798.339844 0.236977
797.162109 0.238936
795.985352 0.237878
794.807617 0.227441
793.628906 0.223372
792.451172 0.221983
791.272461 0.236328
790.093750 0.238953
788.915039 0.251615
787.735352 0.245203
786.556641 0.260533
785.375977 0.263484
784.196289 0.244371
783.015625 0.241643
781.835938 0.235909
780.654297 0.227839
779.473633 0.225450
778.291992 0.220725
777.110352 0.219007
775.928711 0.216955
774.747070 0.214905
773.564453 0.220529
772.381836 0.214142
771.199219 0.197754
770.015625 0.208379
768.832031 0.197999
767.648438 0.218284
766.464844 0.221900
765.280273 0.221185
764.095703 0.232125
762.911133 0.235403
761.725586 0.246336
760.541016 0.280561
759.355469 0.303124
758.168945 0.316696
756.983398 0.329596
755.796875 0.351469
754.610352 0.343744
753.422852 0.322063
752.236328 0.313352
751.048828 0.293349
749.861328 0.286308
748.672852 0.285248
747.485352 0.273232
746.296875 0.260558
745.107422 0.256518
743.918945 0.256792
742.729492 0.238159
741.540039 0.239764
740.349609 0.233411
739.160156 0.216785
737.969727 0.216405
736.779297 0.216356
735.587891 0.211339
734.397461 0.215597
733.206055 0.206940
732.013672 0.213514
730.822266 0.213797
729.629883 0.212426
728.437500 0.207416
727.244141 0.208031
726.051758 0.207984
724.858398 0.200003
723.665039 0.215823
722.470703 0.209165
721.276367 0.208788
720.082031 0.216338
718.887695 0.211336
717.693359 0.213269
716.498047 0.220482
715.302734 0.210863
714.106445 0.215434
712.911133 0.217365
711.714844 0.217646
710.517578 0.229795
709.321289 0.219855
708.124023 0.210578
706.926758 0.216461
705.729492 0.214765
704.531250 0.215046
703.333008 0.224875
702.134766 0.217582
700.936523 0.227077
699.737305 0.233606
698.538086 0.241448
697.338867 0.244682
696.138672 0.236078
694.938477 0.242599
693.738281 0.247146
692.538086 0.247418
691.336914 0.259845
690.135742 0.265698
688.934570 0.272533
687.732422 0.251790
686.531250 0.261251
685.328125 0.270379
684.125977 0.270974
682.923828 0.279112
681.720703 0.275770
680.516602 0.277347
679.313477 0.280233
678.109375 0.288362
676.905273 0.286331
675.701172 0.287576
674.496094 0.293077
673.291992 0.294975
672.085938 0.302764
670.880859 0.292550
669.674805 0.283650
668.468750 0.300595
667.262695 0.279270
666.055664 0.275937
664.849609 0.279797
663.642578 0.257838
662.434570 0.252552
661.227539 0.256741
660.019531 0.262234
658.810547 0.259236
657.602539 0.242529
656.393555 0.249327
655.184570 0.250249
653.975586 0.262588
652.765625 0.256984
651.555664 0.257251
650.345703 0.242197
649.134766 0.254200
647.924805 0.245019
646.712891 0.249849
645.501953 0.228949
644.291016 0.229874
643.079102 0.235355
641.866211 0.228792
640.654297 0.233946
639.441406 0.223157
638.228516 0.239693
637.015625 0.225656
635.801758 0.236332
634.587891 0.229453
633.374023 0.238174
632.160156 0.224150
630.945313 0.225073
629.730469 0.236711
628.514648 0.227242
627.299805 0.230111
626.083984 0.226814
624.868164 0.229681
623.651367 0.239034
622.435547 0.242870
621.218750 0.233413
620.000977 0.240166
618.784180 0.256960
617.566406 0.248802
616.347656 0.258786
615.129883 0.250631
613.911133 0.249602
612.692383 0.233685
611.473633 0.241074
610.253906 0.236165
609.034180 0.233523
607.814453 0.226356
606.594727 0.234062
605.374023 0.239503
604.153320 0.231046
602.931641 0.239716
601.710938 0.221250
600.489258 0.222167
599.267578 0.220502
598.044922 0.215609
596.822266 0.214592
595.599609 0.200669
594.376953 0.206751
593.153320 0.201866
591.929688 0.204721
590.706055 0.198228
589.481445 0.197859
588.257813 0.201035
587.032227 0.207109
585.807617 0.209315
584.582031 0.201540
583.356445 0.193768
582.130859 0.207560
580.905273 0.205582
579.678711 0.191703
578.452148 0.205165
577.224609 0.199652
575.997070 0.198320
574.769531 0.205986
573.541992 0.195015
572.313477 0.197218
571.084961 0.202310
569.856445 0.196484
568.627930 0.200932
567.398438 0.208587
566.168945 0.213351
564.939453 0.200471
563.708984 0.198821
562.478516 0.203584
561.248047 0.208345
560.016602 0.201887
558.785156 0.209849
557.553711 0.198269
556.322266 0.203027
555.089844 0.200738
553.857422 0.214135
552.625000 0.203845
551.391602 0.198678
550.158203 0.206628
548.924805 0.200824
547.690430 0.204294
546.457031 0.206483
545.222656 0.202920
543.987305 0.206387
542.752930 0.198673
541.517578 0.201181
540.281250 0.205603
539.045898 0.197895
537.809570 0.207741
536.573242 0.198440
535.335938 0.210514
534.099609 0.199623
532.861328 0.205952
531.624023 0.202716
530.385742 0.202350
529.148438 0.212497
527.909180 0.205122
526.670898 0.209213
525.431641 0.207254
524.192383 0.217709
522.952148 0.212884
521.712891 0.213789
520.472656 0.209604
519.231445 0.216232
517.991211 0.213002
516.750000 0.209138
515.508789 0.217986
514.266602 0.217935
513.024414 0.222965
511.782227 0.225453
510.540039 0.222542
509.296875 0.215190
508.053711 0.226562
506.810547 0.218261
505.566406 0.227724
504.322266 0.221011
503.078125 0.221276
501.833008 0.238656
500.587891 0.231628
499.342773 0.239493
498.097656 0.248305
496.851563 0.247296
495.605469 0.234891
494.359375 0.238950
493.112305 0.230034
491.865234 0.260664
490.618164 0.238464
489.370117 0.256430
488.123047 0.261111
486.874023 0.259469
485.625977 0.260987
484.376953 0.275456
483.127930 0.276654
481.878906 0.280377
480.628906 0.288518
479.378906 0.287503
478.128906 0.298477
476.877930 0.296514
475.626953 0.304327
474.375977 0.322541
473.125000 0.324671
471.873047 0.322703
470.621094 0.350667
469.368164 0.356568
468.115234 0.381676
466.862305 0.402679
465.609375 0.411397
464.355469 0.446858
463.102539 0.489539
461.847656 0.544781
460.593750 0.617606
459.338867 0.677507
458.083984 0.753723
456.828125 0.818904
455.572266 0.862063
454.316406 0.873164
453.060547 0.819258
451.803711 0.772286
450.546875 0.674803
449.290039 0.623808
448.032227 0.559034
446.774414 0.506836
445.516602 0.471282
444.257813 0.429475
442.999023 0.417463
441.740234 0.386656
440.481445 0.389069
439.221680 0.369871
437.961914 0.366025
436.701172 0.357172
435.441406 0.361154
434.180664 0.366074
432.918945 0.352222
431.658203 0.367461
430.396484 0.373625
429.133789 0.369784
427.872070 0.379695
426.609375 0.367731
425.346680 0.358272
424.083008 0.351003
422.819336 0.361533
421.555664 0.367689
420.291016 0.366976
419.027344 0.367511
417.762695 0.373660
416.497070 0.376064
415.231445 0.374103
413.965820 0.398323
412.700195 0.394799
411.433594 0.414018
410.166992 0.413606
408.900391 0.409146
407.632813 0.414651
406.365234 0.431978
405.097656 0.454899
403.830078 0.449500
402.561523 0.448147
401.291992 0.477264
400.023438 0.481500
398.753906 0.499097
397.484375 0.501461
396.214844 0.525878
394.944336 0.518607
393.673828 0.535867
392.402344 0.539151
391.130859 0.559190
389.859375 0.547264
388.587891 0.572254
387.315430 0.581417
386.042969 0.589956
384.770508 0.572455
383.497070 0.584090
382.223633 0.588284
380.950195 0.581636
379.676758 0.595737
378.402344 0.594972
377.126953 0.598540
375.852539 0.580758
374.577148 0.572882
373.301758 0.591915
372.025391 0.580331
370.749023 0.568751
369.472656 0.572320
368.196289 0.567545
366.918945 0.563699
365.641602 0.562326
364.363281 0.556322
363.085938 0.554642
361.807617 0.538459
360.528320 0.534316
359.249023 0.527399
357.969727 0.517094
356.690430 0.507102
355.410156 0.501738
354.129883 0.501614
352.849609 0.492249
351.568359 0.474266
350.287109 0.463064
349.005859 0.452792
347.723633 0.465605
346.441406 0.459644
345.159180 0.442614
343.875977 0.437891
342.592773 0.433479
341.309570 0.417696
340.026367 0.421895
338.742188 0.410424
337.457031 0.392509
336.172852 0.405307
334.887695 0.382184
333.602539 0.385771
332.316406 0.375857
331.030273 0.362880
329.744141 0.362484
328.457031 0.360247
327.170898 0.364449
325.882813 0.350875
324.595703 0.349255
323.307617 0.348250
322.019531 0.360105
320.730469 0.346851
319.441406 0.354110
318.152344 0.355858
316.863281 0.336803
315.573242 0.347117
314.283203 0.345501
312.992188 0.344192
311.701172 0.349301
310.410156 0.365101
309.119141 0.358289
307.827148 0.355757
306.535156 0.358110
305.242188 0.376944
303.950195 0.378375
302.656250 0.377364
301.363281 0.392214
300.069336 0.396689
298.775391 0.393846
297.480469 0.424832
296.186523 0.423507
294.891602 0.432538
293.595703 0.454051
292.299805 0.483468
291.003906 0.483955
289.708008 0.510307
288.411133 0.528735
287.114258 0.537422
285.816406 0.579551
284.518555 0.592173
283.220703 0.604483
281.922852 0.631068
280.624023 0.636983
279.325195 0.657473
278.025391 0.646073
276.725586 0.661085
275.425781 0.680642
274.125977 0.690784
272.825195 0.715176
271.523438 0.753807
270.222656 0.760891
268.920898 0.814946
267.619141 0.835342
266.316406 0.873297
265.013672 0.918197
263.710938 0.980937
262.408203 1.018824
261.104492 1.053667
259.799805 1.094844
258.496094 1.124205
257.191406 1.147805
255.886719 1.206460
254.581055 1.235466
253.275391 1.280472
251.969727 1.303705
250.663086 1.371016
249.356445 1.394818
248.049805 1.416494
246.742188 1.425787
245.434570 1.452572
244.126953 1.473915
242.818359 1.475345
241.509766 1.477981
240.201172 1.481519
238.891602 1.466977
237.582031 1.446419
236.271484 1.379194
234.961914 1.374926
233.650391 1.345978
232.339844 1.312833
231.028320 1.282111
229.716797 1.225842
228.405273 1.202073
227.092773 1.218896
225.779297 1.186426
224.466797 1.142256
223.153320 1.116730
221.839844 1.068396
220.525391 1.100541
219.210938 1.070844
217.896484 1.055864
216.581055 1.045991
215.265625 1.028925
213.950195 1.013368
212.633789 0.983730
211.317383 0.972387
210.000977 0.985615
208.683594 0.964993
207.366211 0.957855
206.048828 0.910009
204.730469 0.938502
203.412109 0.940052
202.092773 0.918570
200.773438 0.899192
199.454102 0.908523
198.133789 0.893342
196.814453 0.892809
195.493164 0.892576
194.172852 0.876813
192.851563 0.887928
191.529297 0.899635
190.208008 0.902681
188.885742 0.893495
187.562500 0.908172
186.239258 0.925526
184.916016 0.920811
183.592773 0.962291
182.268555 0.968592
180.944336 0.974890
179.619141 0.956469
178.293945 0.998193
176.968750 1.040489
175.643555 1.032181
174.317383 1.056598
172.990234 1.053345
171.664063 1.081013
170.336914 1.110153
169.008789 1.080441
167.680664 1.114913
166.352539 1.149959
165.024414 1.162125
163.695313 1.195952
162.366211 1.207505
161.036133 1.243676
159.706055 1.326986
158.375977 1.374966
157.044922 1.423217
155.713867 1.473516
154.382813 1.540083
153.050781 1.557149
151.718750 1.650013
150.385742 1.705822
149.053711 1.741770
147.719727 1.765567
146.386719 1.818637
145.052734 1.841809
143.717773 1.866150
142.383789 1.858852
141.048828 1.889085
139.712891 1.893305
138.377930 1.875668
137.041016 1.901737
135.705078 1.889419
134.368164 1.890091
133.031250 1.868046
131.693359 1.861645
130.355469 1.828709
129.017578 1.859168
127.678711 1.841869
126.339844 1.836658
125.000977 1.787563
123.661133 1.838610
122.321289 1.803965
120.980469 1.794059
119.639648 1.816817
118.298828 1.828679
116.957031 1.827301
115.615234 1.828569
114.273438 1.833951
112.930664 1.882227
111.587891 1.896990
110.244141 1.925254
108.900391 1.907115
107.556641 1.877832
106.211914 1.838295
104.867188 1.765338
103.522461 1.634648
102.176758 1.491715
100.831055 1.363515
99.484375 1.189966
98.137695 1.022663
