3197.119141 0.008710
3196.414063 0.008709
3195.708008 0.008708
3195.001953 0.007915
3194.296875 0.008705
3193.590820 0.008703
3192.884766 0.010284
3192.178711 0.007119
3191.472656 0.009490
3190.765625 0.011861
3190.059570 0.009487
3189.352539 0.009486
3188.646484 0.004742
3187.939453 0.010273
3187.232422 0.008691
3186.525391 0.009480
3185.818359 0.010268
3185.111328 0.007108
3184.404297 0.004738
3183.696289 0.004737
3182.989258 0.011840
3182.281250 0.001578
3181.573242 0.007102
3180.865234 0.004734
3180.157227 0.003944
3179.449219 0.003944
3178.741211 0.010252
3178.033203 0.004731
3177.324219 0.007884
3176.616211 0.004729
3175.907227 0.012610
3175.198242 0.010244
3174.489258 0.010242
3173.780273 0.007090
3173.071289 0.011814
3172.362305 0.009450
3171.652344 0.007873
3170.943359 0.007085
3170.233398 0.008658
3169.523438 0.010231
3168.814453 0.007868
3168.104492 0.004720
3167.394531 0.004720
3166.683594 0.004719
3165.973633 0.010222
3165.263672 0.007862
3164.552734 0.003930
3163.841797 0.007074
3163.130859 0.007858
3162.420898 0.008643
3161.709961 0.004713
3160.998047 0.009425
3160.287109 0.007068
3159.576172 0.010207
3158.864258 0.010206
3158.153320 0.008634
3157.441406 0.009418
3156.729492 0.007062
3156.017578 0.008630
3155.305664 0.009413
3154.593750 0.009411
3153.880859 0.008626
3153.168945 0.011760
3152.456055 0.009407
3151.744141 0.008622
3151.031250 0.010187
3150.318359 0.009402
3149.605469 0.011751
3148.892578 0.014882
3148.178711 0.007048
3147.465820 0.010179
3146.751953 0.009394
3146.039063 0.010176
3145.325195 0.007826
3144.611328 0.010955
3143.897461 0.006259
3143.183594 0.010951
3142.468750 0.007821
3141.754883 0.007038
3141.041016 0.007818
3140.326172 0.009380
3139.611328 0.010160
3138.896484 0.010159
3138.181641 0.009376
3137.466797 0.007812
3136.751953 0.010154
3136.037109 0.008590
3135.321289 0.013274
3134.605469 0.007807
3133.890625 0.004683
3133.174805 0.008584
3132.458984 0.010144
3131.743164 0.008582
3131.027344 0.004680
3130.310547 0.007799
3129.594727 0.007797
3128.877930 0.007796
3128.161133 0.010913
3127.445313 0.008573
3126.728516 0.008571
3126.010742 0.012465
3125.293945 0.009348
3124.577148 0.014798
3123.859375 0.010902
3123.142578 0.015571
3122.424805 0.012455
3121.707031 0.010896
3120.989258 0.004669
3120.271484 0.010115
3119.553711 0.007779
3118.835938 0.014778
3118.117188 0.010109
3117.399414 0.004665
3116.680664 0.004664
3115.961914 0.014768
3115.243164 0.009325
3114.524414 0.010101
3113.805664 0.011653
3113.086914 0.007767
3112.367188 0.006989
3111.648438 0.011647
3110.928711 0.008540
3110.208984 0.010867
3109.489258 0.010865
3108.769531 0.012415
3108.049805 0.013964
3107.329102 0.007757
3106.609375 0.015510
3105.888672 0.004652
3105.168945 0.010078
3104.448242 0.009301
3103.727539 0.008525
3103.006836 0.012398
3102.285156 0.009297
3101.564453 0.015492
3100.843750 0.008519
3100.122070 0.013938
3099.400391 0.008516
3098.678711 0.009289
3097.957031 0.012383
3097.235352 0.008512
3096.513672 0.010058
3095.791992 0.010829
3095.069336 0.012374
3094.346680 0.010052
3093.625000 0.010824
3092.902344 0.010049
3092.179688 0.007729
3091.457031 0.008500
3090.733398 0.007726
3090.010742 0.010042
3089.287109 0.004634
3088.564453 0.013899
3087.840820 0.012353
3087.117188 0.010035
3086.393555 0.015436
3085.669922 0.010031
3084.946289 0.006944
3084.221680 0.008485
3083.498047 0.010026
3082.773438 0.011567
3082.048828 0.010023
3081.324219 0.006937
3080.599609 0.010019
3079.875000 0.013870
3079.149414 0.012327
3078.424805 0.010784
3077.699219 0.013093
3076.974609 0.010780
3076.249023 0.010778
3075.523438 0.013086
3074.797852 0.010005
3074.071289 0.010003
3073.345703 0.013079
3072.619141 0.006923
3071.893555 0.012305
3071.166992 0.009227
3070.440430 0.012301
3069.713867 0.012299
3068.987305 0.009991
3068.259766 0.008452
3067.533203 0.011524
3066.805664 0.017667
3066.079102 0.010752
3065.351563 0.012286
3064.624023 0.014587
3063.896484 0.011514
3063.168945 0.014581
3062.440430 0.013044
3061.712891 0.012275
3060.984375 0.011506
3060.255859 0.012270
3059.527344 0.009201
3058.798828 0.012266
3058.070313 0.019162
3057.341797 0.008430
3056.613281 0.015324
3055.883789 0.008427
3055.154297 0.010723
3054.424805 0.009190
3053.695313 0.006891
3052.965820 0.012249
3052.236328 0.016073
3051.506836 0.011479
3050.776367 0.010712
3050.046875 0.013770
3049.316406 0.013767
3048.585938 0.018353
3047.855469 0.010704
3047.125000 0.012231
3046.393555 0.012229
3045.663086 0.011462
3044.931641 0.010696
3044.201172 0.010694
3043.469727 0.012984
3042.738281 0.009927
3042.006836 0.012216
3041.275391 0.012213
3040.542969 0.015264
3039.811523 0.012972
3039.079102 0.013733
3038.346680 0.011442
3037.614258 0.016016
3036.881836 0.016013
3036.149414 0.015247
3035.416992 0.013720
3034.683594 0.016766
3033.951172 0.009906
3033.217773 0.018284
3032.484375 0.016757
3031.750977 0.013708
3031.017578 0.012183
3030.284180 0.014464
3029.549805 0.013700
3028.816406 0.012937
3028.082031 0.015217
3027.347656 0.018257
3026.613281 0.012930
3025.878906 0.015209
3025.144531 0.016727
3024.410156 0.011403
3023.674805 0.016721
3022.939453 0.019757
3022.205078 0.019754
3021.469727 0.013673
3020.734375 0.015949
3019.999023 0.012909
3019.262695 0.015943
3018.527344 0.013663
3017.791016 0.014420
3017.054688 0.019728
3016.318359 0.012897
3015.582031 0.015170
3014.845703 0.021993
3014.109375 0.016681
3013.373047 0.015162
3012.635742 0.015917
3011.898438 0.010609
3011.161133 0.017427
3010.424805 0.019696
3009.686523 0.014391
3008.949219 0.011359
3008.211914 0.017414
3007.473633 0.015140
3006.736328 0.020435
3005.998047 0.018161
3005.259766 0.014375
3004.521484 0.015885
3003.782227 0.024201
3003.043945 0.017391
3002.305664 0.024192
3001.566406 0.018897
3000.827148 0.019649
3000.087891 0.024934
2999.348633 0.019642
2998.609375 0.021904
2997.870117 0.021900
2997.129883 0.021896
2996.389648 0.022647
2995.650391 0.024152
2994.910156 0.021129
2994.169922 0.018862
2993.429688 0.030173
2992.688477 0.027905
2991.948242 0.026392
2991.207031 0.024125
2990.465820 0.018844
2989.725586 0.022609
2988.983398 0.019591
2988.242188 0.026368
2987.500977 0.021090
2986.759766 0.026358
2986.017578 0.025600
2985.275391 0.023337
2984.533203 0.026343
2983.791016 0.027091
2983.048828 0.030848
2982.306641 0.029337
2981.563477 0.029332
2980.821289 0.027071
2980.078125 0.023306
2979.334961 0.030067
2978.591797 0.028559
2977.848633 0.031559
2977.105469 0.036812
2976.361328 0.034551
2975.618164 0.039051
2974.874023 0.031535
2974.129883 0.037535
2973.385742 0.037528
2972.641602 0.036771
2971.897461 0.049518
2971.152344 0.045008
2970.408203 0.042750
2969.663086 0.037493
2968.917969 0.044983
2968.172852 0.044975
2967.427734 0.047215
2966.682617 0.051702
2965.936523 0.050194
2965.191406 0.046439
2964.445313 0.047928
2963.699219 0.056155
2962.953125 0.059139
2962.207031 0.046404
2961.460938 0.054627
2960.713867 0.060602
2959.967773 0.059095
2959.220703 0.055344
2958.473633 0.062811
2957.726563 0.066537
2956.979492 0.062788
2956.232422 0.064270
2955.484375 0.065753
2954.737305 0.062752
2953.989258 0.064234
2953.241211 0.072437
2952.493164 0.070930
2951.745117 0.066437
2950.997070 0.063439
2950.248047 0.079098
2949.500000 0.079083
2948.750977 0.079068
2948.001953 0.076070
2947.252930 0.083512
2946.503906 0.076787
2945.754883 0.076772
2945.004883 0.077503
2944.255859 0.070037
2943.505859 0.067789
2942.755859 0.075224
2942.005859 0.081912
2941.255859 0.081897
2940.504883 0.085603
2939.754883 0.083354
2939.003906 0.079618
2938.252930 0.074395
2937.502930 0.081075
2936.750977 0.072136
2936.000000 0.073609
2935.249023 0.078799
2934.497070 0.072838
2933.746094 0.079512
2932.994141 0.069096
2932.242188 0.072054
2931.490234 0.077239
2930.738281 0.063116
2929.985352 0.066074
2929.233398 0.074226
2928.480469 0.075696
2927.727539 0.063068
2926.974609 0.066765
2926.221680 0.069719
2925.468750 0.060066
2924.715820 0.068951
2923.961914 0.067455
2923.208008 0.068184
2922.455078 0.063725
2921.701172 0.074084
2920.946289 0.068145
2920.192383 0.061467
2919.438477 0.068859
2918.683594 0.065145
2917.928711 0.072534
2917.173828 0.067340
2916.418945 0.066587
2915.664063 0.069533
2914.909180 0.067301
2914.153320 0.077640
2913.398438 0.066536
2912.642578 0.068741
2911.886719 0.067250
2911.130859 0.073886
2910.375000 0.065008
2909.619141 0.067950
2908.862305 0.068675
2908.105469 0.073092
2907.349609 0.078245
2906.592773 0.068635
2905.835938 0.073050
2905.078125 0.075249
2904.321289 0.068596
2903.563477 0.092181
2902.806641 0.079629
2902.048828 0.084037
2901.291016 0.081073
2900.533203 0.081057
2899.774414 0.066307
2899.016602 0.076606
2898.257813 0.081010
2897.500000 0.080995
2896.741211 0.076562
2895.982422 0.081700
2895.222656 0.080212
2894.463867 0.080197
2893.705078 0.072089
2892.945313 0.077959
2892.185547 0.072797
2891.425781 0.074253
2890.666016 0.083794
2889.906250 0.079369
2889.146484 0.088171
2888.385742 0.071258
2887.625000 0.083730
2886.864258 0.077105
2886.103516 0.088103
2885.342773 0.083681
2884.582031 0.082931
2883.821289 0.084383
2883.059570 0.072628
2882.297852 0.069680
2881.536133 0.075534
2880.774414 0.075519
2880.012695 0.085767
2879.250977 0.078421
2878.488281 0.082070
2877.726563 0.093776
2876.963867 0.085701
2876.201172 0.092275
2875.438477 0.094454
2874.674805 0.085651
2873.912109 0.090026
2873.149414 0.086349
2872.385742 0.089259
2871.622070 0.079001
2870.858398 0.087762
2870.094727 0.094326
2869.330078 0.084072
2868.566406 0.084787
2867.801758 0.084040
2867.038086 0.086946
2866.273438 0.089120
2865.508789 0.090564
2864.743164 0.094197
2863.978516 0.091989
2863.212891 0.100730
2862.448242 0.086115
2861.682617 0.089746
2860.916992 0.097753
2860.151367 0.088252
2859.384766 0.078026
2858.619141 0.097696
2857.852539 0.085285
2857.086914 0.088912
2856.320313 0.083066
2855.553711 0.093249
2854.786133 0.083033
2854.019531 0.082289
2853.251953 0.090282
2852.485352 0.082257
2851.717773 0.092430
2850.950195 0.078586
2850.182617 0.074933
2849.414063 0.085829
2848.646484 0.081449
2847.877930 0.085796
2847.110352 0.084325
2846.341797 0.099571
2845.573242 0.074845
2844.803711 0.087181
2844.035156 0.087164
2843.266602 0.076254
2842.497070 0.090761
2841.727539 0.079128
2840.958008 0.081290
2840.188477 0.078371
2839.418945 0.089238
2838.648438 0.087770
2837.878906 0.089929
2837.108398 0.089186
2836.337891 0.092793
2835.567383 0.079004
2834.795898 0.083336
2834.025391 0.088391
2833.254883 0.087649
2832.483398 0.077493
2831.711914 0.085443
2830.940430 0.086150
2830.168945 0.084685
2829.397461 0.081774
2828.625000 0.075970
2827.852539 0.082465
2827.081055 0.081002
2826.308594 0.072309
2825.536133 0.073018
2824.762695 0.076618
2823.990234 0.088165
2823.216797 0.077310
2822.444336 0.077295
2821.670898 0.069335
2820.897461 0.071487
2820.123047 0.072917
2819.349609 0.070016
2818.576172 0.072167
2817.801758 0.071431
2817.027344 0.076466
2816.252930 0.068518
2815.478516 0.067783
2814.704102 0.069932
2813.928711 0.072081
2813.154297 0.072067
2812.378906 0.076376
2811.603516 0.069877
2810.828125 0.065542
2810.052734 0.077771
2809.276367 0.065516
2808.500977 0.075580
2807.724609 0.057574
2806.948242 0.075550
2806.171875 0.065464
2805.395508 0.055382
2804.619141 0.069033
2803.841797 0.069739
2803.064453 0.067568
2802.288086 0.066836
2801.510742 0.070416
2800.733398 0.050287
2799.955078 0.059614
2799.177734 0.065347
2798.399414 0.056001
2797.621094 0.063168
2796.842773 0.066026
2796.064453 0.065295
2795.286133 0.062412
2794.507813 0.060966
2793.728516 0.058085
2792.950195 0.060941
2792.170898 0.057345
2791.391602 0.055184
2790.611328 0.048724
2789.832031 0.060176
2789.052734 0.058016
2788.272461 0.059436
2787.492188 0.060140
2786.711914 0.054402
2785.931641 0.057969
2785.151367 0.052233
2784.370117 0.055800
2783.588867 0.056504
2782.808594 0.056493
2782.027344 0.066491
2781.246094 0.050037
2780.463867 0.050027
2779.682617 0.055733
2778.900391 0.057865
2778.119141 0.048568
2777.336914 0.049273
2776.554688 0.052119
2775.771484 0.047112
2774.989258 0.053525
2774.206055 0.044239
2773.423828 0.052077
2772.640625 0.049927
2771.857422 0.052056
2771.074219 0.053471
2770.290039 0.049184
2769.506836 0.049174
2768.722656 0.047027
2767.938477 0.049867
2767.154297 0.055554
2766.370117 0.045574
2765.585938 0.049837
2764.800781 0.049827
2764.016602 0.049817
2763.231445 0.042691
2762.446289 0.048374
2761.661133 0.046941
2760.875000 0.055465
2760.089844 0.049766
2759.303711 0.054732
2758.518555 0.051878
2757.732422 0.049736
2756.945313 0.042623
2756.159180 0.053267
2755.373047 0.055387
2754.585938 0.048276
2753.798828 0.049686
2753.012695 0.049676
2752.224609 0.051795
2751.437500 0.056750
2750.650391 0.054611
2749.862305 0.051763
2749.074219 0.053880
2748.287109 0.046781
2747.499023 0.048189
2746.709961 0.051721
2745.921875 0.043211
2745.132813 0.051700
2744.344727 0.053106
2743.555664 0.049556
2742.766602 0.047422
2741.977539 0.048828
2741.187500 0.049526
2740.398438 0.057297
2739.608398 0.051627
2738.818359 0.046667
2738.028320 0.046658
2737.238281 0.048062
2736.448242 0.043812
2735.657227 0.051575
2734.866211 0.048033
2734.075195 0.049435
2733.284180 0.046601
2732.493164 0.044474
2731.702148 0.045876
2730.910156 0.047278
2730.119141 0.047268
2729.327148 0.047259
2728.535156 0.047954
2727.743164 0.043009
2726.950195 0.049345
2726.158203 0.051449
2725.365234 0.042983
2724.572266 0.047201
2723.779297 0.045783
2722.986328 0.043661
2722.193359 0.042948
2721.399414 0.049274
2720.606445 0.046449
2719.812500 0.044329
2719.018555 0.043616
2718.224609 0.039387
2717.430664 0.047114
2716.635742 0.039371
2715.840820 0.047798
2715.046875 0.045680
2714.251953 0.040050
2713.456055 0.047066
2712.661133 0.040736
2711.866211 0.047047
2711.070313 0.041421
2710.274414 0.033692
2709.478516 0.035088
2708.682617 0.046307
2707.886719 0.042088
2707.089844 0.044184
2706.293945 0.042772
2705.497070 0.046970
2704.700195 0.036447
2703.903320 0.042045
2703.105469 0.039234
2702.308594 0.046231
2701.510742 0.042019
2700.712891 0.036409
2699.915039 0.036402
2699.117188 0.040594
2698.319336 0.044784
2697.520508 0.040577
2696.722656 0.032875
2695.923828 0.044057
2695.125000 0.042649
2694.326172 0.047534
2693.526367 0.042632
2692.727539 0.047514
2691.927734 0.042614
2691.127930 0.038415
2690.328125 0.044692
2689.528320 0.041192
2688.728516 0.046767
2687.927734 0.042570
2687.126953 0.037677
2686.326172 0.046041
2685.525391 0.044636
2684.724609 0.036259
2683.923828 0.042526
2683.122070 0.046002
2682.321289 0.043205
2681.519531 0.041803
2680.717773 0.039705
2679.915039 0.043179
2679.113281 0.040385
2678.310547 0.041072
2677.508789 0.045240
2676.706055 0.045230
2675.903320 0.045221
2675.099609 0.041734
2674.296875 0.044507
2673.493164 0.041716
2672.690430 0.048659
2671.886719 0.046564
2671.083008 0.042385
2670.278320 0.038903
2669.474609 0.047229
2668.669922 0.043748
2667.865234 0.042350
2667.060547 0.045118
2666.255859 0.043720
2665.451172 0.048568
2664.646484 0.040234
2663.840820 0.042306
2663.035156 0.044377
2662.229492 0.044368
2661.423828 0.048517
2660.618164 0.042270
2659.811523 0.039490
2659.004883 0.044331
2658.199219 0.038781
2657.391602 0.042235
2656.584961 0.038765
2655.778320 0.035989
2655.033203 0.045075
2654.970703 0.041517
2654.227539 0.038834
2654.164063 0.042200
2653.421875 0.040908
2653.356445 0.042883
2652.616211 0.038128
2652.548828 0.040108
2651.810547 0.038122
2651.740234 0.040791
2651.004883 0.038809
2650.932617 0.047694
2650.198242 0.038803
2650.124023 0.043538
2649.392578 0.034640
2649.316406 0.045601
2648.585938 0.047102
2648.507813 0.044210
2647.779297 0.042247
2647.699219 0.040748
2646.972656 0.043625
2646.889648 0.037287
2646.166016 0.038771
2646.081055 0.042802
2645.359375 0.037380
2645.271484 0.042793
2644.552734 0.045680
2644.461914 0.040713
2643.745117 0.039444
2643.652344 0.042775
2642.938477 0.042205
2642.842773 0.042076
2642.130859 0.047041
2642.033203 0.044136
2641.323242 0.041500
2641.222656 0.046195
2640.515625 0.042185
2640.413086 0.045496
2639.708008 0.047709
2639.602539 0.043419
2638.899414 0.048393
2638.791992 0.046166
2638.091797 0.048385
2637.981445 0.044089
2637.283203 0.042848
2637.169922 0.041325
2636.475586 0.044223
2636.359375 0.040628
2635.666992 0.045597
2635.547852 0.038554
2634.858398 0.045590
2634.736328 0.037169
2634.049805 0.040057
2633.924805 0.045419
2633.241211 0.042122
2633.113281 0.040593
2632.431641 0.052472
2632.300781 0.047464
2631.623047 0.046940
2631.489258 0.041264
2630.813477 0.041411
2630.676758 0.048131
2630.003906 0.042785
2629.864258 0.048121
2629.194336 0.048297
2629.051758 0.043987
2628.384766 0.047599
2628.238281 0.050849
2627.575195 0.046212
2627.425781 0.048090
2626.765625 0.042067
2626.612305 0.048080
2625.955078 0.046886
2625.798828 0.043263
2625.145508 0.046878
2624.985352 0.045313
2624.334961 0.048249
2624.171875 0.040499
2623.524414 0.042728
2623.358398 0.045294
2622.713867 0.042721
2622.543945 0.046657
2621.903320 0.048225
2621.729492 0.041845
2621.092773 0.042018
2620.916016 0.048009
2620.281250 0.039256
2620.100586 0.045256
2619.469727 0.050955
2619.286133 0.047988
2618.659180 0.045439
2618.471680 0.044551
2617.847656 0.048185
2617.656250 0.052079
2617.036133 0.048176
2616.840820 0.045902
2616.224609 0.048168
2616.025391 0.047262
2615.412109 0.046784
2615.209961 0.046567
2614.600586 0.044025
2614.394531 0.047927
2613.788086 0.048144
2613.578125 0.042440
2612.976563 0.052262
2612.762695 0.043116
2612.164063 0.044003
2611.946289 0.047896
2611.351563 0.041933
2611.129883 0.050622
2610.539063 0.046737
2610.312500 0.045140
2609.726563 0.052227
2609.496094 0.047866
2608.913086 0.037789
2608.678711 0.047855
2608.100586 0.047400
2607.862305 0.047845
2607.287109 0.045332
2607.044922 0.047835
2606.473633 0.042577
2606.227539 0.049874
2605.660156 0.046003
2605.409180 0.051230
2604.846680 0.050801
2604.591797 0.045755
2604.033203 0.042555
2603.773438 0.044380
2603.218750 0.045980
2602.955078 0.045736
2602.405273 0.041169
2602.136719 0.045726
2601.590820 0.051452
2601.318359 0.040257
2600.776367 0.045270
2600.500000 0.043660
2599.961914 0.040462
2599.680664 0.044332
2599.147461 0.043198
2598.861328 0.045005
2598.333008 0.039763
2598.042969 0.042268
2597.518555 0.047981
2597.222656 0.049757
2596.703125 0.045232
2596.403320 0.041568
2595.888672 0.045224
2595.583984 0.040878
2595.073242 0.046586
2594.763672 0.042232
2594.257813 0.045208
2593.943359 0.047671
2593.442383 0.045201
2593.123047 0.046299
2592.625977 0.047932
2592.302734 0.043566
2591.810547 0.047923
2591.482422 0.046279
2590.994141 0.045862
2590.661133 0.054434
2590.178711 0.047907
2589.839844 0.046259
2589.362305 0.050636
2589.018555 0.044208
2588.545898 0.044470
2588.197266 0.046239
2587.729492 0.052670
2587.375977 0.040110
2586.913086 0.046506
2586.554688 0.044180
2586.095703 0.045814
2585.732422 0.047568
2585.279297 0.051276
2584.910156 0.047558
2584.461914 0.047849
2584.087891 0.047547
2583.644531 0.046474
2583.265625 0.044821
2582.827148 0.040999
2582.443359 0.040737
2582.009766 0.045775
2581.620117 0.042086
2581.192383 0.045084
2580.796875 0.041398
2580.374023 0.047808
2579.973633 0.042746
2579.556641 0.045068
2579.150391 0.045450
2578.738281 0.050522
2578.327148 0.040015
2577.919922 0.036861
2577.503906 0.042040
2577.101563 0.045727
2576.679688 0.042709
2576.283203 0.045037
2575.855469 0.044733
2575.464844 0.043664
2575.031250 0.050144
2574.645508 0.041610
2574.207031 0.050133
2573.827148 0.038193
2573.381836 0.041995
2573.007813 0.044323
2572.557617 0.047403
2572.188477 0.047725
2571.732422 0.041976
2571.369141 0.044308
2570.907227 0.047382
2570.549805 0.043619
2570.082031 0.052109
2569.730469 0.047700
2569.256836 0.052098
2568.910156 0.044285
2568.430664 0.041263
2568.090820 0.045639
2567.605469 0.045312
2567.270508 0.040183
2566.779297 0.039893
2566.450195 0.044942
2565.953125 0.041912
2565.629883 0.043573
2565.125977 0.050013
2564.809570 0.057179
2564.299805 0.045272
2563.989258 0.042877
2563.472656 0.046613
2563.167969 0.046952
2562.646484 0.046603
2562.346680 0.048985
2561.819336 0.041866
2561.526367 0.037412
2560.992188 0.044558
2560.705078 0.043527
2560.164063 0.041173
2559.883789 0.041479
2559.336914 0.051286
2559.061523 0.046911
2558.508789 0.047227
2558.240234 0.047582
2557.680664 0.042495
2557.417969 0.055729
2556.852539 0.046532
2556.596680 0.042809
2556.024414 0.047196
2555.774414 0.051633
2555.195313 0.051230
2554.952148 0.046190
2554.367188 0.041110
2554.129883 0.047540
2553.538086 0.044469
2553.307617 0.049569
2552.708984 0.045807
2552.484375 0.047523
2551.878906 0.047144
2551.662109 0.044800
2551.049805 0.043767
2550.838867 0.051578
2550.219727 0.043757
2550.015625 0.044784
2549.390625 0.047113
2549.192383 0.046133
2548.560547 0.046429
2548.369141 0.054942
2547.730469 0.045746
2547.544922 0.047473
2546.899414 0.047081
2546.721680 0.047464
2546.069336 0.056485
2545.897461 0.047456
2545.238281 0.045044
2545.074219 0.052192
2544.407227 0.037640
2544.250000 0.053538
2543.576172 0.053760
2543.425781 0.046753
2542.745117 0.045686
2542.600586 0.040647
2541.913086 0.044332
2541.776367 0.047413
2541.082031 0.055739
2540.951172 0.049436
2540.250000 0.051698
2540.126953 0.044688
2539.417969 0.046316
2539.301758 0.050096
2538.585938 0.046977
2538.476563 0.047379
2537.752930 0.046296
2537.651367 0.043311
2536.920898 0.057689
2536.826172 0.050069
2536.087891 0.050299
2536.000000 0.051413
2535.254883 0.044924
2535.174805 0.045993
2534.421875 0.050277
2534.348633 0.054776
2533.587891 0.050936
2533.522461 0.041919
2532.754883 0.046904
2532.696289 0.050700
2531.920898 0.050913
2531.870117 0.050691
2531.086914 0.053581
2531.042969 0.041897
2530.252930 0.044864
2530.216797 0.052024
2529.418945 0.046862
2529.389648 0.041882
2528.583984 0.046852
2528.562500 0.053356
2527.749023 0.049518
2527.735352 0.044568
2526.914063 0.046831
2526.908203 0.052661
2526.081055 0.045483
2526.079102 0.056027
2525.253906 0.050822
2525.244141 0.053992
2524.425781 0.046131
2524.409180 0.051283
2523.597656 0.052136
2523.573242 0.051949
2522.769531 0.053963
2522.737305 0.046778
2521.941406 0.053953
2521.901367 0.046768
2521.113281 0.051246
2521.065430 0.050097
2520.285156 0.053259
2520.228516 0.044743
2519.456055 0.046509
2519.392578 0.052745
2518.627930 0.046501
2518.555664 0.046058
2517.798828 0.053904
2517.718750 0.054056
2516.969727 0.047157
2516.881836 0.048706
2516.140625 0.047149
2516.043945 0.043359
2515.311523 0.053201
2515.207031 0.049351
2514.481445 0.051172
2514.369141 0.046673
2513.651367 0.051835
2513.531250 0.055995
2512.822266 0.047114
2512.693359 0.053317
2511.992188 0.055181
2511.855469 0.063966
2511.162109 0.055171
2511.016602 0.051960
2510.332031 0.057179
2510.177734 0.057277
2509.500977 0.049770
2509.338867 0.053934
2508.670898 0.057158
2508.500000 0.050594
2507.839844 0.052441
2507.661133 0.050582
2507.008789 0.049071
2506.821289 0.045248
2506.177734 0.053766
2505.982422 0.051225
2505.346680 0.055100
2505.142578 0.055204
2504.515625 0.057778
2504.302734 0.053196
2503.683594 0.050378
2503.461914 0.055843
2502.852539 0.050369
2502.622070 0.048520
2502.020508 0.053046
2501.781250 0.054489
2501.188477 0.055050
2500.940430 0.046504
2500.356445 0.048999
2500.099609 0.053136
2499.524414 0.049661
2499.258789 0.046483
2498.691406 0.053678
2498.416992 0.053776
2497.859375 0.054339
2497.576172 0.046462
2497.026367 0.050975
2496.734375 0.055742
2496.193359 0.057001
2495.892578 0.052412
2495.360352 0.054979
2495.050781 0.052400
2494.527344 0.049606
2494.208008 0.048409
2493.694336 0.050937
2493.365234 0.048398
2492.860352 0.053608
2492.523438 0.048387
2492.027344 0.048909
2491.680664 0.055665
2491.193359 0.054259
2490.836914 0.053003
2490.359375 0.050230
2489.994141 0.054978
2489.525391 0.053569
2489.150391 0.054965
2488.691406 0.052889
2488.306641 0.053628
2487.856445 0.053549
2487.462891 0.051630
2487.022461 0.055547
2486.619141 0.054265
2486.187500 0.051522
2485.775391 0.054253
2485.352539 0.050174
2484.930664 0.056225
2484.517578 0.055516
2484.085938 0.058857
2483.682617 0.058181
2483.241211 0.051571
2482.846680 0.053489
2482.396484 0.052220
2482.011719 0.054148
2481.550781 0.048243
2481.175781 0.054138
2480.706055 0.061446
2480.339844 0.058137
2479.860352 0.051523
2479.503906 0.054786
2479.014648 0.050851
2478.667969 0.056780
2478.168945 0.054141
2477.832031 0.051426
2477.322266 0.054788
2476.995117 0.054088
2476.476563 0.060055
2476.158203 0.050739
2475.629883 0.055423
2475.322266 0.062077
2474.783203 0.060687
2474.485352 0.051388
2473.936523 0.064630
2473.647461 0.058718
2473.088867 0.050769
2472.810547 0.062710
2472.242188 0.055371
2471.973633 0.053360
2471.394531 0.053381
2471.135742 0.054017
2470.546875 0.056663
2470.297852 0.056007
2469.698242 0.052039
2469.459961 0.058663
2468.850586 0.052027
2468.622070 0.060652
2468.001953 0.052015
2467.784180 0.057975
2467.153320 0.057927
2466.946289 0.061295
2466.304688 0.056597
2466.107422 0.055955
2465.456055 0.052637
2465.268555 0.051282
2464.607422 0.054598
2464.429688 0.055934
2463.757813 0.056558
2463.590820 0.053926
2462.908203 0.051285
2462.751953 0.055913
2462.058594 0.057189
2461.913086 0.052575
2461.208984 0.055861
2461.073242 0.051234
2460.358398 0.052563
2460.233398 0.059208
2459.508789 0.049266
2459.394531 0.059862
2458.658203 0.050568
2458.554688 0.051870
2457.807617 0.053182
2457.713867 0.058509
2456.956055 0.050544
2456.874023 0.056504
2456.105469 0.055126
2456.033203 0.059152
2455.253906 0.055770
2455.193359 0.051167
2454.402344 0.049197
2454.352539 0.058465
2453.550781 0.052464
2453.511719 0.062440
2452.699219 0.045895
2452.670898 0.055787
2451.846680 0.055062
2451.829102 0.050464
2450.995117 0.043908
2450.988281 0.053110
2450.146484 0.053070
2450.142578 0.049118
2449.304688 0.049782
2449.290039 0.053090
2448.462891 0.053045
2448.436523 0.054407
2447.621094 0.051743
2447.583984 0.050414
2446.779297 0.053723
2446.730469 0.056947
2445.937500 0.046419
2445.876953 0.056934
2445.094727 0.060333
2445.023438 0.060192
2444.251953 0.053693
2444.169922 0.053637
2443.409180 0.046392
2443.315430 0.049700
2442.566406 0.054335
2442.460938 0.053611
2441.723633 0.049687
2441.606445 0.050984
2440.879883 0.046366
2440.751953 0.049011
2440.037109 0.046357
2439.897461 0.050306
2439.193359 0.046348
2439.041992 0.055520
2438.349609 0.058255
2438.186523 0.050935
2437.505859 0.059568
2437.331055 0.053535
2436.662109 0.055586
2436.475586 0.054175
2435.817383 0.053591
2435.619141 0.048289
2434.973633 0.053581
2434.763672 0.048277
2434.128906 0.056877
2433.907227 0.057397
2433.284180 0.057528
2433.050781 0.054775
2432.439453 0.052228
2432.194336 0.048895
2431.593750 0.046269
2431.336914 0.054097
2430.749023 0.052869
2430.479492 0.052129
2429.903320 0.045591
2429.622070 0.048860
2429.058594 0.049546
2428.764648 0.049499
2428.212891 0.043592
2427.907227 0.045580
2427.367188 0.052828
2427.048828 0.051429
2426.520508 0.050838
2426.191406 0.050765
2425.674805 0.052808
2425.333008 0.049452
2424.828125 0.054778
2424.473633 0.050090
2423.982422 0.053448
2423.615234 0.045526
2423.135742 0.050799
2422.755859 0.054618
2422.289063 0.053428
2421.897461 0.045504
2421.441406 0.051439
2421.038086 0.051342
2420.594727 0.054726
2420.177734 0.053929
2419.747070 0.053397
2419.318359 0.049369
2418.900391 0.054046
2418.458008 0.044811
2418.052734 0.046128
2417.597656 0.051292
2417.205078 0.044142
2416.737305 0.049982
2416.356445 0.054015
2415.876953 0.045427
2415.508789 0.052028
2415.015625 0.049958
2414.660156 0.048068
2414.155273 0.060324
2413.812500 0.048717
2413.293945 0.049933
2412.963867 0.050024
2412.115234 0.053305
2411.266602 0.050005
2410.416992 0.049995
2409.568359 0.054589
2408.718750 0.049976
2407.869141 0.053253
2407.019531 0.053243
2406.169922 0.055862
2405.319336 0.045338
2404.469727 0.047957
2403.619141 0.057143
2402.768555 0.055162
2401.917969 0.045303
2401.066406 0.044638
2400.215820 0.045942
2399.364258 0.053807
2398.513672 0.057077
2397.662109 0.053130
2396.810547 0.045906
2395.958008 0.045897
2395.106445 0.051133
2394.253906 0.045880
2393.402344 0.047837
2392.549805 0.045862
2391.697266 0.055678
2390.843750 0.057632
2389.991211 0.051073
2389.137695 0.045826
2388.284180 0.054326
2387.430664 0.045154
2386.577148 0.045800
2385.723633 0.056257
2384.869141 0.055592
2384.015625 0.052966
2383.161133 0.051648
2382.306641 0.050331
2381.452148 0.048360
2380.597656 0.055538
2379.742188 0.050301
2378.886719 0.047679
2378.032227 0.065954
2377.176758 0.054189
2376.320313 0.050915
2375.464844 0.054168
2374.609375 0.058725
2373.752930 0.048928
2372.896484 0.049571
2372.040039 0.054126
2371.183594 0.050203
2370.326172 0.051497
2369.469727 0.054094
2368.612305 0.062554
2367.754883 0.051467
2366.897461 0.054062
2366.040039 0.053400
2365.182617 0.051437
2364.324219 0.057285
2363.465820 0.053369
2362.607422 0.048153
2361.749023 0.053348
2360.890625 0.052687
2360.031250 0.053327
2359.172852 0.053317
2358.313477 0.058507
2357.454102 0.043547
2356.594727 0.053285
2355.735352 0.057173
2354.875000 0.056512
2354.015625 0.056501
2353.155273 0.059087
2352.294922 0.057777
2351.434570 0.051924
2350.573242 0.060999
2349.712891 0.055148
2348.851563 0.059029
2347.990234 0.066152
2347.128906 0.066787
2346.267578 0.054456
2345.406250 0.047964
2344.543945 0.052491
2343.681641 0.057664
2342.819336 0.060891
2341.957031 0.053755
2341.094727 0.062162
2340.232422 0.058265
2339.369141 0.055018
2338.505859 0.051771
2337.642578 0.056290
2336.779297 0.048516
2335.916016 0.057561
2335.051758 0.065309
2334.188477 0.058185
2333.324219 0.054942
2332.459961 0.052346
2331.595703 0.055566
2330.730469 0.059431
2329.866211 0.054252
2329.000977 0.063282
2328.135742 0.055522
2327.270508 0.056156
2326.405273 0.054209
2325.540039 0.051618
2324.673828 0.061929
2323.807617 0.052242
2322.941406 0.057390
2322.075195 0.063181
2321.208984 0.065747
2320.341797 0.068956
2319.475586 0.060566
2318.608398 0.055401
2317.741211 0.063763
2316.874023 0.053447
2316.005859 0.059231
2315.138672 0.062437
2314.270508 0.055346
2313.402344 0.059195
2312.534180 0.059183
2311.666016 0.050167
2310.797852 0.054658
2309.928711 0.059791
2309.059570 0.061064
2308.190430 0.058482
2307.321289 0.059755
2306.452148 0.056531
2305.582031 0.055878
2304.712891 0.057151
2303.842773 0.056497
2302.972656 0.055844
2302.102539 0.060967
2301.231445 0.068013
2300.361328 0.059660
2299.490234 0.053234
2298.619141 0.058995
2297.748047 0.061547
2296.876953 0.066022
2296.004883 0.057037
2295.133789 0.064073
2294.261719 0.064060
2293.389648 0.064047
2292.517578 0.058912
2291.645508 0.056979
2290.772461 0.062729
2289.899414 0.056957
2289.027344 0.059504
2288.153320 0.057573
2287.280273 0.063318
2286.407227 0.067142
2285.533203 0.067128
2284.660156 0.059445
2283.786133 0.060072
2282.911133 0.053031
2282.037109 0.061325
2281.163086 0.061952
2280.288086 0.056192
2279.413086 0.064480
2278.538086 0.059999
2277.663086 0.058711
2276.787109 0.066355
2275.912109 0.057411
2275.036133 0.055487
2274.160156 0.071417
2273.284180 0.059289
2272.408203 0.067563
2271.531250 0.059903
2270.655273 0.057342
2269.778320 0.063063
2268.901367 0.065598
2268.024414 0.064312
2267.146484 0.063025
2266.269531 0.064286
2265.391602 0.065545
2264.513672 0.057897
2263.635742 0.057886
2262.757813 0.064234
2261.878906 0.064856
2261.000000 0.062936
2260.122070 0.063559
2259.243164 0.055921
2258.363281 0.064169
2257.484375 0.066061
2256.604492 0.053981
2255.725586 0.058415
2254.845703 0.064117
2253.965820 0.068546
2253.084961 0.065360
2252.205078 0.064078
2251.324219 0.058990
2250.443359 0.062149
2249.562500 0.059600
2248.681641 0.065927
2247.800781 0.069083
2246.918945 0.061465
2246.037109 0.063353
2245.155273 0.069041
2244.273438 0.070293
2243.391602 0.069013
2242.509766 0.065834
2241.626953 0.058226
2240.744141 0.065174
2239.861328 0.065161
2238.978516 0.063250
2238.094727 0.062605
2237.211914 0.075869
2236.328125 0.061315
2235.444336 0.067622
2234.560547 0.061290
2233.675781 0.065700
2232.791992 0.061897
2231.907227 0.065041
2231.022461 0.071973
2230.137695 0.073852
2229.252930 0.067526
2228.368164 0.061833
2227.482422 0.067498
2226.596680 0.069377
2225.710938 0.070623
2224.825195 0.067457
2223.938477 0.064922
2223.052734 0.064278
2222.166016 0.071196
2221.279297 0.062362
2220.392578 0.067388
2219.505859 0.071152
2218.618164 0.069249
2217.731445 0.071123
2216.843750 0.073625
2215.956055 0.066061
2215.068359 0.066676
2214.179688 0.062260
2213.291016 0.070421
2212.403320 0.069778
2211.514648 0.067250
2210.625977 0.069121
2209.736328 0.067222
2208.847656 0.068465
2207.958008 0.070963
2207.068359 0.071576
2206.178711 0.067167
2205.289063 0.069036
2204.398438 0.067139
2203.507813 0.069008
2202.618164 0.068366
2201.727539 0.065217
2200.835938 0.068965
2199.945313 0.066443
2199.053711 0.063923
2198.162109 0.068296
2197.270508 0.061391
2196.378906 0.074531
2195.487305 0.069506
2194.594727 0.065735
2193.703125 0.068225
2192.810547 0.071966
2191.917969 0.068823
2191.024414 0.072562
2190.131836 0.065668
2189.238281 0.072532
2188.344727 0.066891
2187.451172 0.066877
2186.557617 0.062489
2185.664063 0.065600
2184.769531 0.060589
2183.875000 0.066197
2182.980469 0.069305
2182.085938 0.068042
2181.191406 0.068652
2180.295898 0.063022
2179.400391 0.069248
2178.504883 0.058630
2177.609375 0.063607
2176.713867 0.071075
2175.817383 0.065450
2174.921875 0.067930
2174.025391 0.065423
2173.128906 0.073508
2172.231445 0.065396
2171.334961 0.080327
2170.437500 0.076575
2169.540039 0.072202
2168.642578 0.072187
2167.745117 0.074661
2166.847656 0.063449
2165.949219 0.076496
2165.050781 0.071505
2164.152344 0.069626
2163.253906 0.068368
2162.354492 0.072082
2161.456055 0.067097
2160.556641 0.065841
2159.657227 0.072037
2158.757813 0.069539
2157.858398 0.073249
2156.958008 0.067648
2156.057617 0.075700
2155.157227 0.075064
2154.256836 0.075669
2153.356445 0.063251
2152.456055 0.076257
2151.554688 0.072522
2150.653320 0.073126
2149.751953 0.070013
2148.850586 0.079910
2147.948242 0.073700
2147.045898 0.073685
2146.144531 0.073669
2145.242188 0.077367
2144.338867 0.077351
2143.436523 0.082284
2142.533203 0.072989
2141.629883 0.075447
2140.726563 0.085324
2139.823242 0.074179
2138.919922 0.077872
2138.015625 0.074148
2137.111328 0.078457
2136.207031 0.071029
2135.302734 0.079659
2134.398438 0.074086
2133.493164 0.069750
2132.588867 0.084546
2131.683594 0.085145
2130.778320 0.082043
2129.872070 0.089427
2128.966797 0.085708
2128.060547 0.090006
2127.154297 0.088754
2126.248047 0.082573
2125.341797 0.082556
2124.434570 0.088082
2123.527344 0.093606
2122.620117 0.082504
2121.712891 0.093567
2120.805664 0.088008
2119.897461 0.104603
2118.990234 0.095353
2118.082031 0.099023
2117.173828 0.095928
2116.265625 0.098367
2115.356445 0.104493
2114.447266 0.086649
2113.539063 0.097690
2112.628906 0.098898
2111.719727 0.088437
2110.810547 0.097014
2109.900391 0.094538
2108.990234 0.092677
2108.080078 0.091430
2107.169922 0.086503
2106.258789 0.080964
2105.348633 0.084626
2104.437500 0.083995
2103.526367 0.092559
2102.615234 0.094991
2101.703125 0.082104
2100.791992 0.095563
2099.879883 0.086356
2098.967773 0.091236
2098.055664 0.081422
2097.142578 0.085689
2096.230469 0.083835
2095.317383 0.081982
2094.404297 0.081964
2093.490234 0.088063
2092.577148 0.089267
2091.663086 0.081912
2090.750000 0.078228
2089.835938 0.085544
2088.920898 0.088580
2088.006836 0.087950
2087.091797 0.084878
2086.177734 0.079366
2085.262695 0.078128
2084.346680 0.083604
2083.431641 0.081755
2082.515625 0.084788
2081.600586 0.079281
2080.684570 0.075606
2079.767578 0.080466
2078.851563 0.084716
2077.934570 0.080432
2077.017578 0.088335
2076.100586 0.082834
2075.183594 0.090733
2074.266602 0.087060
2073.348633 0.079129
2072.430664 0.080938
2071.512695 0.078486
2070.594727 0.076037
2069.676758 0.081494
2068.757813 0.079044
2067.838867 0.080243
2066.919922 0.081441
2066.000977 0.075347
2065.082031 0.086874
2064.162109 0.083818
2063.242188 0.086229
2062.322266 0.079533
2061.402344 0.084371
2060.481445 0.083746
2059.561523 0.091009
2058.640625 0.081284
2057.719727 0.078841
2056.798828 0.076398
2055.876953 0.092143
2054.956055 0.079396
2054.034180 0.086044
2053.112305 0.086632
2052.189453 0.084796
2051.267578 0.086594
2050.344727 0.085365
2049.421875 0.090794
2048.499023 0.085328
2047.576172 0.090150
2046.652344 0.090130
2045.729492 0.094344
2044.805664 0.081022
2043.881836 0.084631
2042.957031 0.091261
2042.033203 0.090033
2041.108398 0.089409
2040.183594 0.085162
2039.258789 0.088163
2038.333984 0.084521
2037.408203 0.094764
2036.483398 0.086899
2035.557617 0.085070
2034.630859 0.089274
2033.705078 0.084430
2032.778320 0.083809
2031.852539 0.085599
2030.925781 0.080833
2030.818359 0.091607
2029.999023 0.077816
2029.892578 0.086767
2029.071289 0.079613
2028.965820 0.093375
2028.144531 0.088645
2028.040039 0.089741
2027.216797 0.092850
2027.113281 0.080689
2026.289063 0.085600
2026.186523 0.078865
2025.361328 0.092818
2025.260742 0.087876
2024.432617 0.092803
2024.333008 0.093273
2023.503906 0.083749
2023.406250 0.095659
2022.576172 0.080723
2022.479492 0.090826
2021.647461 0.079505
2021.551758 0.098023
2020.717773 0.090331
2020.624023 0.089584
2019.789063 0.080080
2019.696289 0.085958
2018.859375 0.085484
2018.768555 0.087141
2017.929688 0.089683
2017.840820 0.085320
2017.000000 0.083649
2016.913086 0.091909
2016.070313 0.080627
2015.984375 0.090688
2015.139648 0.080011
2015.055664 0.088266
2014.209961 0.087215
2014.126953 0.095451
2013.279297 0.085998
2013.198242 0.090028
2012.348633 0.091394
2012.269531 0.090009
2011.416992 0.091980
2011.340820 0.094188
2010.486328 0.090762
2010.411133 0.098366
2009.554688 0.085338
2009.482422 0.091748
2008.623047 0.093735
2008.552734 0.089330
2007.691406 0.091316
2007.623047 0.091109
2006.759766 0.078085
2006.692383 0.089890
2005.827148 0.087080
2005.762695 0.080285
2004.894531 0.096672
2004.833008 0.095841
2003.961914 0.088251
2003.902344 0.091628
2003.029297 0.091237
2002.971680 0.093404
2002.096680 0.090621
2002.041016 0.091588
2001.163086 0.091805
2001.110352 0.095158
2000.229492 0.089990
2000.178711 0.091547
1999.295898 0.090574
1999.248047 0.086742
1998.362305 0.094756
1998.316406 0.093302
1997.427734 0.092941
1997.384766 0.087899
1996.494141 0.093524
1996.453125 0.090271
1995.559570 0.085116
1995.521484 0.100412
1994.625000 0.092892
1994.589844 0.090232
1993.689453 0.092876
1993.657227 0.084237
1992.754883 0.094657
1992.724609 0.097957
1991.819336 0.095239
1991.792969 0.088978
1990.883789 0.098217
1990.860352 0.090152
1989.948242 0.089218
1989.926758 0.087148
1989.012695 0.095189
1988.994141 0.089516
1988.076172 0.086194
1988.061523 0.096059
1987.139648 0.094557
1987.127930 0.096634
1986.203125 0.098131
1986.194336 0.096016
1985.266602 0.087943
1985.260742 0.093610
1984.330078 0.089124
1984.327148 0.091801
1983.392578 0.089109
1983.392578 0.090589
1982.458984 0.087897
1982.455078 0.088781
1981.524414 0.087881
1981.517578 0.084592
1980.589844 0.089061
1980.580078 0.098867
1979.655273 0.085460
1979.641602 0.105990
1978.720703 0.093810
1978.703125 0.101800
1977.786133 0.093793
1977.765625 0.104158
1976.850586 0.090193
1976.826172 0.092829
1975.915039 0.090774
1975.887695 0.089239
1974.979492 0.093147
1974.948242 0.093382
1974.043945 0.100891
1974.009766 0.098119
1973.108398 0.094904
1973.070313 0.092746
1972.172852 0.096678
1972.130859 0.084999
1971.236328 0.105610
1971.190430 0.092705
1970.299805 0.093660
1970.250000 0.098032
1969.363281 0.096626
1969.310547 0.102762
1968.426758 0.101380
1968.370117 0.091456
1967.490234 0.103746
1967.428711 0.099748
1966.553711 0.097766
1966.488281 0.099132
1965.616211 0.094769
1965.546875 0.094362
1964.678711 0.092964
1964.605469 0.095527
1963.741211 0.106651
1963.664063 0.104404
1962.803711 0.089952
1962.722656 0.094299
1961.866211 0.092319
1961.780273 0.097242
1960.928711 0.100044
1960.837891 0.093664
1959.990234 0.103598
1959.895508 0.096606
1959.051758 0.104770
1958.953125 0.095992
1958.113281 0.104156
1958.010742 0.101895
1957.174805 0.092236
1957.067383 0.100687
1956.236328 0.099954
1956.124023 0.095928
1955.296875 0.104695
1955.180664 0.105378
1954.357422 0.102891
1954.237305 0.104763
1953.418945 0.092764
1953.292969 0.100597
1952.479492 0.098098
1952.349609 0.108266
1951.539063 0.108780
1951.405273 0.108833
1950.599609 0.100440
1950.460938 0.108809
1949.660156 0.105770
1949.515625 0.101098
1948.719727 0.103968
1948.571289 0.111124
1947.779297 0.097415
1947.625977 0.111690
1946.838867 0.101555
1946.680664 0.108120
1945.898438 0.102130
1945.735352 0.102189
1944.957031 0.109830
1944.789063 0.103347
1944.016602 0.099719
1943.842773 0.101552
1943.075195 0.096140
1942.896484 0.114516
1942.133789 0.105023
1941.950195 0.095605
1941.192383 0.099071
1941.003906 0.103844
1940.250977 0.101426
1940.056641 0.102051
1939.308594 0.099035
1939.110352 0.106746
1938.366211 0.099017
1938.163086 0.110849
1937.424805 0.100185
1937.215820 0.099034
1936.482422 0.107279
1936.267578 0.109031
1935.539063 0.101926
1935.319336 0.094865
1934.596680 0.104870
1934.372070 0.096022
1933.654297 0.113144
1933.422852 0.100123
1932.710938 0.106016
1932.474609 0.108933
1931.767578 0.096522
1931.526367 0.104198
1930.824219 0.101241
1930.577148 0.115357
1929.880859 0.100038
1929.627930 0.108859
1928.936523 0.107714
1928.678711 0.101774
1927.993164 0.107102
1927.728516 0.107633
1927.048828 0.112999
1926.779297 0.108197
1926.104492 0.105880
1925.829102 0.108172
1925.160156 0.108817
1924.878906 0.115788
1924.215820 0.111163
1923.928711 0.109886
1923.270508 0.112916
1922.977539 0.099286
1922.326172 0.099300
1922.026367 0.106312
1921.380859 0.102828
1921.075195 0.112747
1920.435547 0.105763
1920.124023 0.100980
1919.490234 0.111651
1919.172852 0.102717
1918.543945 0.102180
1918.220703 0.110910
1917.598633 0.115743
1917.268555 0.115578
1916.652344 0.109227
1916.316406 0.116138
1915.706055 0.113339
1915.364258 0.107902
1914.759766 0.105055
1914.411133 0.110808
1913.813477 0.104446
1913.458984 0.104922
1912.866211 0.111506
1912.505859 0.108414
1911.919922 0.110306
1911.552734 0.107217
1910.972656 0.109696
1910.598633 0.105436
1910.025391 0.116161
1909.645508 0.108340
1909.078125 0.100812
1908.691406 0.113584
1908.129883 0.106687
1907.737305 0.110631
1907.182617 0.105489
1906.782227 0.107680
1906.234375 0.116664
1905.828125 0.110581
1905.286133 0.110162
1904.873047 0.107046
1904.337891 0.114854
1903.917969 0.108191
1903.389648 0.111299
1902.962891 0.114013
1902.440430 0.101858
1902.006836 0.105218
1901.492188 0.111257
1901.051758 0.103441
1900.542969 0.115357
1900.095703 0.104001
1899.593750 0.114158
1899.139648 0.106314
1898.644531 0.114725
1898.183594 0.105706
1897.695313 0.109410
1897.226563 0.108017
1896.745117 0.098803
1896.269531 0.108576
1895.794922 0.101725
1895.312500 0.103298
1894.844727 0.112875
1894.355469 0.114944
1893.894531 0.109328
1893.398438 0.107334
1892.944336 0.113421
1892.440430 0.123639
1891.994141 0.106349
1891.482422 0.106701
1891.042969 0.113378
1890.524414 0.113089
1890.091797 0.109245
1889.566406 0.107818
1889.140625 0.111574
1888.607422 0.106627
1888.189453 0.114488
1887.648438 0.107185
1887.238281 0.113293
1886.689453 0.120556
1886.286133 0.123249
1885.730469 0.110047
1885.334961 0.106209
1884.770508 0.118171
1884.382813 0.114402
1883.811523 0.108832
1883.430664 0.109688
1882.851563 0.118698
1882.477539 0.113186
1881.891602 0.123325
1881.525391 0.104369
1880.930664 0.104685
1880.572266 0.114316
1879.970703 0.112801
1879.619141 0.116052
1879.009766 0.118007
1878.666016 0.115444
1878.048828 0.109843
1877.712891 0.113665
1877.086914 0.113304
1876.759766 0.105442
1876.125977 0.120829
1875.805664 0.115379
1875.164063 0.098732
1874.852539 0.115943
1874.202148 0.112644
1873.898438 0.118262
1873.240234 0.113198
1872.943359 0.107118
1872.277344 0.110270
1871.989258 0.112950
1871.315430 0.109084
1871.035156 0.108833
1870.352539 0.111379
1870.080078 0.108227
1869.389648 0.111353
1869.125000 0.108207
1868.425781 0.119444
1868.169922 0.102923
1867.462891 0.119416
1867.214844 0.115182
1866.499023 0.111854
1866.258789 0.112821
1865.535156 0.111828
1865.303711 0.118060
1864.570313 0.106009
1864.347656 0.122128
1863.606445 0.114671
1863.391602 0.109836
1862.641602 0.122751
1862.435547 0.107478
1861.676758 0.114618
1861.479492 0.114466
1860.711914 0.113433
1860.522461 0.110941
1859.746094 0.118509
1859.565430 0.122664
1858.781250 0.107980
1858.608398 0.124371
1857.815430 0.110877
1857.651367 0.120872
1856.849609 0.109105
1856.694336 0.122000
1855.882813 0.114334
1855.736328 0.123127
1854.916992 0.109063
1854.779297 0.123676
1853.950195 0.121288
1853.821289 0.118447
1852.983398 0.117184
1852.863281 0.116686
1852.015625 0.119493
1851.905273 0.113771
1851.048828 0.122966
1850.946289 0.116631
1850.081055 0.124691
1849.988281 0.124108
1849.113281 0.115346
1849.029297 0.117153
1848.145508 0.117071
1848.070313 0.120587
1847.176758 0.122289
1847.111328 0.117098
1846.208008 0.104217
1846.151367 0.120530
1845.239258 0.108854
1845.192383 0.119349
1844.270508 0.111743
1844.232422 0.109521
1843.301758 0.128596
1843.272461 0.119292
1842.332031 0.112282
1842.312500 0.125025
1841.362305 0.119240
1841.352539 0.124996
1840.392578 0.125032
1840.391602 0.126118
1839.430664 0.125008
1839.422852 0.124936
1838.470703 0.116845
1838.452148 0.124907
1837.508789 0.120310
1837.481445 0.122000
1836.547852 0.126679
1836.510742 0.141532
1835.586914 0.130721
1835.540039 0.133445
1834.625000 0.137085
1834.568359 0.122488
1833.663086 0.138801
1833.597656 0.136256
1832.701172 0.132387
1832.625000 0.124154
1831.739258 0.127717
1831.653320 0.142513
1830.777344 0.132336
1830.681641 0.136159
1829.814453 0.139274
1829.708984 0.131532
1828.851563 0.144469
1828.736328 0.126332
1827.888672 0.138060
1827.763672 0.137210
1826.925781 0.126433
1826.790039 0.139473
1825.962891 0.139166
1825.817383 0.134275
1824.999023 0.137979
1824.843750 0.133669
1824.035156 0.138532
1823.869141 0.130769
1823.071289 0.141402
1822.895508 0.131885
1822.107422 0.130366
1821.920898 0.124974
1821.143555 0.128603
1820.947266 0.135833
1820.178711 0.140741
1819.971680 0.136374
1819.214844 0.120446
1818.997070 0.135768
1818.250000 0.133738
1818.021484 0.131726
1817.285156 0.134291
1817.046875 0.130550
1816.319336 0.138895
1816.070313 0.127656
1815.354492 0.137132
1815.094727 0.121902
1814.388672 0.127270
1814.119141 0.110429
1813.422852 0.117413
1813.142578 0.133284
1812.457031 0.134160
1812.166016 0.128677
1811.491211 0.132399
1811.188477 0.131504
1810.525391 0.124858
1810.211914 0.129186
1809.558594 0.135815
1809.234375 0.119440
1808.591797 0.139255
1808.256836 0.129695
1807.625000 0.125363
1807.279297 0.125094
1806.658203 0.112053
1806.300781 0.131345
1805.690430 0.123004
1805.322266 0.123891
1804.723633 0.136259
1804.343750 0.136990
1803.755859 0.133346
1803.365234 0.131250
1802.788086 0.129280
1802.386719 0.134070
1801.820313 0.133294
1801.407227 0.132327
1800.851563 0.126921
1800.427734 0.135146
1799.883789 0.136125
1799.448242 0.139674
1798.915039 0.124565
1798.467773 0.139070
1797.946289 0.133189
1797.488281 0.132198
1796.977539 0.137198
1796.507813 0.141281
1796.007813 0.129102
1795.527344 0.132703
1795.039063 0.139448
1794.545898 0.134948
1794.069336 0.121561
1793.564453 0.125807
1793.099609 0.138817
1792.583008 0.140574
1792.129883 0.122089
1791.601563 0.147936
1791.160156 0.140490
1790.620117 0.130266
1790.189453 0.132403
1789.637695 0.131940
1789.218750 0.132377
1788.655273 0.139868
1788.248047 0.143859
1787.672852 0.138696
1787.277344 0.134626
1786.690430 0.134116
1786.306641 0.132873
1785.707031 0.135788
1785.334961 0.129972
1784.723633 0.140298
1784.364258 0.152370
1783.740234 0.146511
1783.392578 0.140268
1782.756836 0.133984
1782.420898 0.134492
1781.772461 0.135654
1781.448242 0.140212
1780.788086 0.133919
1780.476563 0.144206
1779.803711 0.142963
1779.503906 0.137285
1778.819336 0.138390
1778.531250 0.142426
1777.833984 0.135521
1777.558594 0.147565
1776.848633 0.143991
1776.585938 0.141221
1775.863281 0.151323
1775.612305 0.146359
1774.877930 0.150719
1774.638672 0.149773
1773.891602 0.146716
1773.666016 0.154907
1772.905273 0.148379
1772.691406 0.147992
1771.918945 0.146644
1771.717773 0.156565
1770.931641 0.152520
1770.744141 0.140947
1769.945313 0.157076
1769.769531 0.146005
1768.958008 0.158764
1768.794922 0.151626
1767.970703 0.150137
1767.820313 0.156679
1766.982422 0.158701
1766.845703 0.143634
1765.995117 0.158670
1765.870117 0.157732
1765.006836 0.157492
1764.894531 0.150911
1764.018555 0.156316
1763.919922 0.152003
1763.029297 0.174604
1762.944336 0.159874
1762.041016 0.144806
1761.967773 0.154187
1761.051758 0.156794
1760.992188 0.145678
1760.062500 0.160196
1760.015625 0.151287
1759.072266 0.160736
1759.039063 0.161972
1758.083008 0.148122
1758.062500 0.155161
1757.092773 0.149808
1757.085938 0.164712
1756.108398 0.149778
1756.101563 0.153956
1755.131836 0.159464
1755.111328 0.149407
1754.154297 0.167432
1754.120117 0.158951
1753.176758 0.158829
1753.128906 0.159475
1752.198242 0.159939
1751.220703 0.157052
1750.242188 0.157591
1749.263672 0.159843
1748.285156 0.159811
1747.306641 0.156355
1746.327148 0.161458
1745.348633 0.159715
1744.369141 0.166526
1743.389648 0.173335
1742.409180 0.165319
1741.429688 0.153317
1740.449219 0.162403
1739.468750 0.173195
1738.488281 0.169173
1737.507813 0.162875
1736.526367 0.160564
1735.544922 0.166225
1734.563477 0.165622
1733.582031 0.161605
1732.600586 0.161573
1731.618164 0.154146
1730.636719 0.167763
1729.654297 0.173983
1728.671875 0.160305
1727.688477 0.165956
1726.706055 0.169332
1725.722656 0.163048
1724.739258 0.165287
1723.755859 0.160143
1722.771484 0.162382
1721.788086 0.152131
1720.803711 0.152100
1719.819336 0.166822
1718.834961 0.167923
1717.850586 0.155978
1716.865234 0.170123
1715.879883 0.168388
1714.894531 0.159284
1713.909180 0.168319
1712.923828 0.166019
1711.937500 0.164852
1710.951172 0.159155
1709.964844 0.165351
1708.978516 0.174376
1707.991211 0.176605
1707.004883 0.165816
1706.017578 0.167480
1705.030273 0.170840
1704.042969 0.171936
1703.054688 0.166247
1702.066406 0.167343
1701.078125 0.170701
1700.089844 0.170666
1699.101563 0.160461
1698.113281 0.173421
1697.124023 0.172256
1696.134766 0.163751
1695.145508 0.168798
1694.155273 0.169892
1693.166016 0.170422
1692.175781 0.181671
1691.185547 0.170916
1690.195313 0.168625
1689.205078 0.170846
1688.213867 0.171375
1687.222656 0.176976
1686.231445 0.165670
1685.240234 0.164509
1684.249023 0.172924
1683.256836 0.170636
1682.264648 0.164408
1681.272461 0.176758
1680.280273 0.167717
1679.287109 0.173310
1678.294922 0.182275
1677.301758 0.177176
1676.308594 0.170391
1675.315430 0.169232
1674.321289 0.176504
1673.327148 0.168038
1672.333008 0.176994
1671.338867 0.174710
1670.344727 0.174674
1669.349609 0.179130
1668.355469 0.166742
1667.360352 0.173444
1666.365234 0.163306
1665.369141 0.176738
1664.374023 0.176702
1663.377930 0.171057
1662.381836 0.177751
1661.384766 0.167623
1660.388672 0.172633
1659.391602 0.180442
1658.395508 0.175363
1657.397461 0.177567
1656.400391 0.192091
1655.403320 0.179733
1654.405273 0.182495
1653.407227 0.172943
1652.409180 0.182420
1651.411133 0.177906
1650.412109 0.182344
1649.413086 0.192372
1648.414063 0.178355
1647.415039 0.186703
1646.416016 0.187782
1645.416016 0.184390
1644.416016 0.191614
1643.416016 0.192133
1642.416016 0.184275
1641.415039 0.194286
1640.415039 0.197037
1639.414063 0.195880
1638.413086 0.200861
1637.411133 0.199703
1636.410156 0.198546
1635.408203 0.199620
1634.406250 0.188429
1633.404297 0.197865
1632.402344 0.196709
1631.399414 0.198897
1630.396484 0.201084
1629.393555 0.203826
1628.390625 0.220487
1627.387695 0.212648
1626.383789 0.203142
1625.379883 0.215898
1624.375977 0.209177
1623.372070 0.210802
1622.367188 0.212983
1621.362305 0.225169
1620.357422 0.224567
1619.352539 0.219518
1618.347656 0.224473
1617.341797 0.216649
1616.335938 0.224934
1615.330078 0.221000
1614.324219 0.227616
1613.318359 0.230899
1612.311523 0.225301
1611.304688 0.229693
1610.297852 0.241848
1609.291016 0.229596
1608.283203 0.223449
1607.275391 0.238924
1606.267578 0.225018
1605.259766 0.237716
1604.251953 0.234896
1603.243164 0.239832
1602.234375 0.253072
1601.225586 0.240285
1600.216797 0.240788
1599.207031 0.231882
1598.198242 0.240687
1597.188477 0.239530
1596.178711 0.243904
1595.167969 0.248829
1594.158203 0.244354
1593.147461 0.232696
1592.136719 0.238173
1591.125977 0.239780
1590.114258 0.230339
1589.103516 0.241336
1588.091797 0.227482
1587.080078 0.225778
1586.067383 0.233457
1585.055664 0.227890
1584.042969 0.228393
1583.030273 0.246547
1582.017578 0.245392
1581.003906 0.231557
1579.991211 0.239225
1578.977539 0.244685
1577.963867 0.234165
1576.949219 0.239073
1575.935547 0.224153
1574.920898 0.236219
1573.906250 0.230664
1572.891602 0.236119
1571.876953 0.236069
1570.861328 0.227217
1569.845703 0.227169
1568.830078 0.221072
1567.814453 0.238069
1566.797852 0.228674
1565.782227 0.230824
1564.765625 0.242314
1563.749023 0.234571
1562.731445 0.224086
1561.714844 0.224588
1560.697266 0.229481
1559.679688 0.208026
1558.662109 0.218957
1557.643555 0.216716
1556.625000 0.221607
1555.607422 0.216624
1554.587891 0.216030
1553.569336 0.217629
1552.549805 0.223611
1551.531250 0.219728
1550.511719 0.221325
1549.491211 0.213610
1548.471680 0.207541
1547.451172 0.222279
1546.430664 0.215663
1545.410156 0.200841
1544.389648 0.213383
1543.368164 0.215525
1542.346680 0.219855
1541.325195 0.214887
1540.303711 0.211014
1539.282227 0.207690
1538.259766 0.216389
1537.237305 0.205416
1536.214844 0.204280
1535.191406 0.210243
1534.168945 0.212928
1533.145508 0.196507
1532.122070 0.215020
1531.098633 0.214974
1530.074219 0.212746
1529.050781 0.219791
1528.026367 0.208839
1527.000977 0.212065
1525.976563 0.208749
1524.951172 0.210339
1523.926758 0.211929
1522.901367 0.207526
1521.875000 0.212383
1520.849609 0.217782
1519.823242 0.213925
1518.796875 0.210069
1517.770508 0.210568
1516.743164 0.199100
1515.716797 0.211566
1514.689453 0.212064
1513.662109 0.214193
1512.634766 0.205451
1511.606445 0.225513
1510.578125 0.217859
1509.549805 0.209121
1508.521484 0.212877
1507.493164 0.210117
1506.463867 0.224728
1505.434570 0.226308
1504.405273 0.208896
1503.375977 0.220786
1502.345703 0.221281
1501.315430 0.209846
1500.285156 0.211427
1499.254883 0.233604
1498.223633 0.214588
1497.193359 0.232962
1496.162109 0.225328
1495.130859 0.237735
1494.098633 0.229563
1493.067383 0.259285
1492.035156 0.230546
1491.002930 0.241859
1489.969727 0.241807
1488.937500 0.245540
1487.904297 0.254139
1486.871094 0.258949
1485.837891 0.258894
1484.803711 0.266943
1483.770508 0.269587
1482.736328 0.281411
1481.702148 0.279731
1480.666992 0.287769
1479.632813 0.284468
1478.597656 0.279549
1477.562500 0.268158
1476.527344 0.286441
1475.491211 0.291772
1474.455078 0.286856
1473.418945 0.297036
1472.382813 0.271102
1471.346680 0.272659
1470.309570 0.275833
1469.272461 0.263385
1468.235352 0.265482
1467.198242 0.261655
1466.160156 0.265905
1465.122070 0.251317
1464.083984 0.250186
1463.045898 0.252821
1462.006836 0.264060
1460.968750 0.226365
1459.929688 0.242980
1458.889648 0.237553
1457.850586 0.241263
1456.810547 0.243896
1455.771484 0.235787
1454.730469 0.243790
1453.690430 0.243737
1452.649414 0.236170
1451.609375 0.235582
1450.568359 0.242505
1449.526367 0.245670
1448.485352 0.256343
1447.443359 0.246636
1446.401367 0.249798
1445.359375 0.244920
1444.316406 0.270050
1443.274414 0.239992
1442.231445 0.253329
1441.188477 0.251668
1440.144531 0.267138
1439.101563 0.252628
1438.057617 0.274512
1437.013672 0.263218
1435.968750 0.274392
1434.924805 0.281819
1433.879883 0.292450
1432.834961 0.304146
1431.790039 0.297666
1430.744141 0.309356
1429.698242 0.319437
1428.653320 0.331116
1427.606445 0.335315
1426.560547 0.342716
1425.513672 0.341039
1424.466797 0.334561
1423.419922 0.350492
1422.373047 0.339748
1421.325195 0.350872
1420.277344 0.363056
1419.229492 0.340057
1418.181641 0.317601
1417.132813 0.343105
1416.084961 0.344094
1415.036133 0.351474
1413.986328 0.349800
1412.937500 0.352917
1411.887695 0.357629
1410.837891 0.350101
1409.788086 0.348960
1408.738281 0.348883
1407.687500 0.363163
1406.636719 0.356703
1405.585938 0.348121
1404.534180 0.344856
1403.483398 0.346905
1402.431641 0.330895
1401.379883 0.329760
1400.327148 0.350923
1399.275391 0.329083
1398.222656 0.317867
1397.169922 0.341671
1396.117188 0.324622
1395.063477 0.316065
1394.009766 0.308572
1392.956055 0.308504
1391.902344 0.323275
1390.848633 0.315256
1389.793945 0.318364
1388.739258 0.308231
1387.684570 0.310281
1386.628906 0.327152
1385.574219 0.313848
1384.518555 0.320128
1383.462891 0.339102
1382.406250 0.328449
1381.350586 0.341595
1380.293945 0.355794
1379.237305 0.363643
1378.179688 0.359863
1377.123047 0.380916
1376.065430 0.368683
1375.007813 0.372825
1373.949219 0.387525
1372.891602 0.363686
1371.833008 0.367299
1370.774414 0.364579
1369.715820 0.345508
1368.656250 0.330665
1367.596680 0.317410
1366.537109 0.308378
1365.477539 0.303039
1364.417969 0.291379
1363.357422 0.300270
1362.296875 0.285983
1361.236328 0.285392
1360.174805 0.287961
1359.113281 0.287896
1358.052734 0.284675
1356.990234 0.288820
1355.928711 0.278762
1354.866211 0.272390
1353.803711 0.293884
1352.741211 0.295920
1351.678711 0.275885
1350.615234 0.288958
1349.551758 0.290469
1348.488281 0.296706
1347.424805 0.295589
1346.360352 0.308646
1345.295898 0.300705
1344.231445 0.320575
1343.166992 0.298996
1342.101563 0.309942
1341.036133 0.317213
1339.970703 0.305085
1338.905273 0.318119
1337.838867 0.296041
1336.772461 0.295450
1335.706055 0.304811
1334.639648 0.311026
1333.572266 0.312526
1332.504883 0.317690
1331.437500 0.324944
1330.370117 0.331672
1329.302734 0.328982
1328.234375 0.340934
1327.166016 0.332493
1326.096680 0.339735
1325.028320 0.328163
1323.958984 0.316073
1322.889648 0.329059
1321.820313 0.326374
1320.750000 0.323690
1319.679688 0.315787
1318.609375 0.302148
1317.539063 0.307819
1316.468750 0.298360
1315.397461 0.299336
1314.326172 0.303439
1313.254883 0.297636
1312.182617 0.286625
1311.142578 0.281350
1311.110352 0.282797
1310.069336 0.269305
1310.038086 0.274464
1308.997070 0.276535
1308.965820 0.277540
1307.923828 0.290010
1307.892578 0.276970
1306.851563 0.275889
1306.820313 0.269633
1305.778320 0.273225
1305.747070 0.263339
1304.704102 0.278886
1304.672852 0.267455
1303.630859 0.271020
1303.599609 0.259603
1302.557617 0.275119
1302.525391 0.264238
1301.483398 0.265177
1301.451172 0.277192
1300.409180 0.281752
1300.376953 0.286501
1299.334961 0.288444
1299.301758 0.282291
1298.259766 0.279545
1298.227539 0.283799
1297.185547 0.276884
1297.152344 0.287906
1296.110352 0.293441
1296.076172 0.274864
1295.035156 0.293374
1295.000977 0.286763
1293.959961 0.307843
1293.924805 0.290347
1292.883789 0.305696
1292.848633 0.311067
1291.808594 0.286607
1291.772461 0.300957
1290.732422 0.293823
1290.695313 0.298813
1289.656250 0.296884
1289.618164 0.305487
1288.580078 0.320701
1288.541016 0.326159
1287.502930 0.305596
1287.463867 0.304830
1286.426758 0.322141
1286.386719 0.310980
1285.349609 0.327787
1285.308594 0.317127
1284.272461 0.317875
1284.230469 0.316536
1283.195313 0.331297
1283.152344 0.310766
1282.118164 0.306355
1282.073242 0.289982
1281.040039 0.305263
1280.994141 0.304929
1279.961914 0.293807
1279.915039 0.280533
1278.883789 0.297898
1278.835938 0.277364
1277.805664 0.287484
1277.755859 0.284543
1276.727539 0.278109
1276.676758 0.272582
1275.648438 0.276505
1275.596680 0.267865
1274.569336 0.268171
1274.515625 0.264185
1273.490234 0.277438
1273.435547 0.264124
1272.411133 0.275317
1272.354492 0.248044
1271.332031 0.270092
1271.273438 0.265036
1270.251953 0.255040
1270.191406 0.264976
1269.171875 0.262752
1269.110352 0.250972
1268.091797 0.248741
1268.028320 0.251430
1267.011719 0.245076
1266.946289 0.246211
1265.931641 0.248132
1265.864258 0.243058
1264.850586 0.243952
1264.781250 0.248162
1263.769531 0.244423
1263.698242 0.248620
1262.688477 0.255744
1262.615234 0.258877
1261.607422 0.239167
1261.532227 0.237163
1260.526367 0.245320
1260.448242 0.243809
1259.444336 0.245791
1259.364258 0.240146
1258.362305 0.234388
1258.280273 0.244727
1257.280273 0.242087
1257.196289 0.248277
1256.198242 0.244622
1256.111328 0.240495
1255.115234 0.240449
1255.026367 0.248677
1254.033203 0.241952
1253.941406 0.241413
1252.950195 0.239328
1252.856445 0.241357
1251.867188 0.247534
1251.770508 0.244389
1250.783203 0.248004
1250.684570 0.233530
1249.700195 0.245896
1249.598633 0.235019
1248.616211 0.255642
1248.511719 0.226738
1247.532227 0.241166
1247.425781 0.256499
1246.448242 0.236484
1246.338867 0.238453
1245.364258 0.249318
1245.250977 0.236343
1244.279297 0.249271
1244.164063 0.258889
1243.195313 0.249224
1243.076172 0.261397
1242.110352 0.241455
1241.988281 0.261337
1241.024414 0.248616
1240.900391 0.259736
1239.939453 0.262979
1239.812500 0.263781
1238.853516 0.253153
1238.723633 0.255511
1237.768555 0.263909
1237.634766 0.250835
1236.682617 0.285462
1236.544922 0.255392
1235.595703 0.266381
1235.456055 0.252769
1234.509766 0.256562
1234.366211 0.254761
1233.422852 0.259084
1233.276367 0.242915
1232.336914 0.264174
1232.186523 0.254642
1231.250000 0.252819
1231.095703 0.260730
1230.162109 0.239414
1230.004883 0.248890
1229.075195 0.246046
1228.914063 0.242688
1227.987305 0.246513
1227.823242 0.246215
1226.899414 0.238251
1226.731445 0.232340
1225.811523 0.257201
1225.639648 0.234844
1224.723633 0.242267
1224.547852 0.241439
1223.634766 0.244273
1223.456055 0.231666
1222.546875 0.232939
1222.363281 0.238259
1221.458008 0.247258
1221.270508 0.244848
1220.368164 0.255931
1220.177734 0.243769
1219.279297 0.237421
1219.084961 0.233493
1218.189453 0.249168
1217.991211 0.235993
1217.100586 0.251684
1216.897461 0.249215
1216.010742 0.249073
1215.803711 0.242009
1214.919922 0.255174
1214.708984 0.244504
1213.830078 0.272544
1213.614258 0.255674
1212.739258 0.269419
1212.519531 0.268880
1211.648438 0.298045
1211.424805 0.267797
1210.557617 0.295940
1210.329102 0.285073
1209.466797 0.296395
1209.234375 0.303870
1208.375977 0.330630
1208.138672 0.296663
1207.284180 0.310609
1207.041992 0.299141
1206.192383 0.303899
1205.946289 0.313846
1205.100586 0.297702
1204.849609 0.299000
1204.007813 0.322705
1203.752930 0.286708
1202.916016 0.303212
1202.655273 0.283077
1201.823242 0.307755
1201.558594 0.298789
1200.730469 0.300029
1200.460938 0.295666
1199.637695 0.291795
1199.362305 0.281350
1198.543945 0.293782
1198.264648 0.294000
1197.451172 0.286574
1197.166016 0.289863
1196.357422 0.306948
1196.067383 0.280643
1195.263672 0.294123
1194.968750 0.297350
1194.168945 0.302745
1193.870117 0.305919
1193.075195 0.309833
1192.770508 0.323628
1191.980469 0.315386
1191.670898 0.303743
1190.885742 0.317366
1190.570313 0.305702
1189.791016 0.326487
1189.470703 0.316799
1188.696289 0.313673
1188.370117 0.305050
1187.600586 0.311573
1187.269531 0.302440
1186.504883 0.294687
1186.167969 0.289685
1185.409180 0.308393
1185.067383 0.286573
1184.313477 0.296611
1183.965820 0.272307
1183.216797 0.272096
1182.864258 0.264638
1182.121094 0.268986
1181.761719 0.265082
1181.024414 0.258238
1180.659180 0.250830
1179.927734 0.243928
1179.556641 0.254824
1178.830078 0.248463
1178.454102 0.242101
1177.733398 0.253505
1177.351563 0.247107
1176.635742 0.239205
1176.248047 0.226798
1175.538086 0.245265
1175.144531 0.235855
1174.440430 0.234024
1174.040039 0.244907
1173.341797 0.242626
1172.936523 0.243331
1172.243164 0.238001
1171.832031 0.238215
1171.145508 0.247107
1170.727539 0.237147
1170.045898 0.242992
1169.622070 0.216364
1168.947266 0.223631
1168.517578 0.229453
1167.848633 0.215964
1167.412109 0.229398
1166.749023 0.237768
1166.306641 0.228333
1165.649414 0.223499
1165.200195 0.226258
1164.549805 0.230565
1164.093750 0.224184
1163.449219 0.230012
1162.987305 0.219588
1162.348633 0.228444
1161.880859 0.233666
1161.249023 0.238550
1160.773438 0.233610
1160.147461 0.231906
1159.666016 0.244147
1159.046875 0.243022
1158.558594 0.235515
1157.946289 0.242974
1157.451172 0.236467
1156.844727 0.238362
1156.342773 0.256574
1155.743164 0.249977
1155.234375 0.236858
1154.641602 0.249421
1154.125977 0.241335
1153.539063 0.261536
1153.017578 0.268981
1152.436523 0.234627
1151.908203 0.242730
1151.334961 0.253833
1150.798828 0.242672
1150.231445 0.244665
1149.689453 0.246640
1149.128906 0.262342
1148.579102 0.244568
1148.026367 0.262291
1147.468750 0.262621
1146.922852 0.248570
1146.358398 0.257528
1145.819336 0.253582
1145.248047 0.248917
1144.715820 0.261629
1144.136719 0.262934
1143.611328 0.256517
1143.025391 0.260357
1142.506836 0.249890
1141.914063 0.255269
1141.403320 0.258438
1140.801758 0.255710
1140.297852 0.256870
1139.689453 0.254644
1139.193359 0.254797
1138.577148 0.246548
1138.088867 0.261317
1137.464844 0.258035
1136.983398 0.272888
1136.351563 0.263493
1135.877930 0.258687
1135.239258 0.257408
1134.771484 0.266212
1134.125000 0.269385
1133.666016 0.268684
1133.011719 0.261295
1132.559570 0.261057
1131.897461 0.255215
1131.453125 0.276150
1130.783203 0.265179
1130.346680 0.266505
1129.668945 0.279648
1129.240234 0.276544
1128.553711 0.258036
1128.132813 0.276994
1127.439453 0.261479
1127.025391 0.265336
1126.324219 0.267926
1125.917969 0.261248
1125.208008 0.269363
1124.810547 0.278844
1124.092773 0.263791
1123.702148 0.269714
1122.976563 0.268731
1122.594727 0.290829
1121.859375 0.274670
1121.486328 0.269102
1120.743164 0.265099
1120.377930 0.286682
1119.625977 0.275036
1119.268555 0.286625
1118.508789 0.267470
1118.159180 0.284553
1117.391602 0.267904
1117.050781 0.287517
1116.273438 0.281830
1115.940430 0.287459
1115.155273 0.278264
1114.831055 0.267771
1114.037109 0.275200
1113.721680 0.278285
1112.918945 0.269640
1112.611328 0.274204
1111.799805 0.269074
1111.500977 0.266603
1110.680664 0.250043
1110.389648 0.258000
1109.561523 0.240003
1109.279297 0.257948
1108.441406 0.243934
1108.167969 0.246333
1107.321289 0.217442
1107.056641 0.234723
1106.201172 0.221378
1105.945313 0.235179
1105.081055 0.221822
1104.833984 0.208503
1103.959961 0.219276
1103.721680 0.209968
1102.838867 0.206766
1102.609375 0.212939
1101.717773 0.207711
1101.497070 0.201849
1100.595703 0.207660
1100.384766 0.203314
1099.473633 0.197652
1099.271484 0.209798
1098.351563 0.204572
1098.158203 0.213770
1097.229492 0.204023
1097.044922 0.216737
1096.106445 0.204968
1095.931641 0.215188
1094.983398 0.206907
1094.818359 0.208123
1093.860352 0.196414
1093.704102 0.197552
1092.737305 0.202828
1092.589844 0.197010
1091.613281 0.200790
1091.475586 0.204990
1090.489258 0.199249
1090.360352 0.204948
1089.364258 0.204665
1089.246094 0.199395
1088.240234 0.206104
1088.130859 0.199856
1087.115234 0.192150
1087.015625 0.201818
1085.989258 0.197067
1085.900391 0.193265
1084.864258 0.205951
1084.784180 0.208744
1083.738281 0.208380
1083.667969 0.189183
1082.612305 0.204360
1082.551758 0.200153
1081.486328 0.203318
1081.435547 0.196610
1080.359375 0.193352
1080.318359 0.197570
1079.232422 0.208669
1079.202148 0.204031
1078.105469 0.197715
1078.084961 0.193490
1076.977539 0.198161
1076.966797 0.201948
1075.849609 0.190683
1075.849609 0.197409
1074.731445 0.210442
1074.721680 0.198867
1073.613281 0.198013
1073.593750 0.202324
1072.495117 0.201428
1072.464844 0.189296
1071.376953 0.199744
1071.335938 0.195935
1070.257813 0.218176
1070.207031 0.210726
1069.138672 0.211143
1069.077148 0.203256
1068.019531 0.206109
1067.948242 0.209138
1066.900391 0.202574
1066.817383 0.206120
1065.781250 0.208519
1065.687500 0.205080
1064.661133 0.206980
1064.556641 0.209475
1063.541016 0.215913
1063.425781 0.222264
1062.419922 0.215868
1062.294922 0.219739
1061.299805 0.218815
1061.163086 0.212279
1060.178711 0.210298
1060.032227 0.219136
1059.057617 0.221216
1058.899414 0.220561
1057.936523 0.210709
1057.767578 0.214586
1056.815430 0.216642
1056.634766 0.212559
1055.693359 0.221577
1055.501953 0.216450
1054.571289 0.211575
1054.369141 0.216395
1053.449219 0.211531
1053.235352 0.219298
1052.327148 0.219450
1052.101563 0.207418
1051.204102 0.199504
1050.967773 0.210814
1050.081055 0.206924
1049.833984 0.209283
1048.958008 0.211357
1048.699219 0.199877
1047.834961 0.210816
1047.564453 0.206224
1046.710938 0.217235
1046.428711 0.214045
1045.586914 0.214705
1045.293945 0.216451
1044.462891 0.210685
1044.158203 0.203609
1043.338867 0.211138
1043.021484 0.210933
1042.213867 0.210598
1041.885742 0.214320
1041.089844 0.204099
1040.749023 0.210826
1039.964844 0.206539
1039.612305 0.199963
1038.838867 0.214935
1038.474609 0.197457
1037.713867 0.200994
1037.337891 0.196424
1036.587891 0.202441
1036.200195 0.210611
1035.461914 0.204383
1035.061523 0.207613
1034.335938 0.208309
1033.923828 0.203144
1033.209961 0.204794
1032.785156 0.207507
1032.083008 0.215659
1031.646484 0.205983
1030.956055 0.216605
1030.506836 0.209853
1029.829102 0.219533
1029.367188 0.222054
1028.701172 0.217506
1028.227539 0.210726
1027.574219 0.202600
1027.087891 0.215571
1026.446289 0.217911
1025.947266 0.208169
1025.318359 0.209943
1024.806641 0.202240
1024.189453 0.224751
1023.666016 0.226666
1023.061523 0.211835
1022.524414 0.214861
1021.932617 0.216739
1021.382813 0.206488
1020.803711 0.210757
1020.241211 0.216219
1019.674805 0.210219
1019.098633 0.206382
1018.544922 0.212153
1017.957031 0.210241
1017.415039 0.200737
1016.813477 0.202855
1016.285156 0.218491
1015.670898 0.216485
1015.155273 0.203618
1014.527344 0.197865
1014.024414 0.218399
1013.383789 0.213932
1012.894531 0.210449
1012.240234 0.207041
1011.763672 0.211393
1011.095703 0.213822
1010.631836 0.215300
1009.951172 0.231336
1009.500977 0.222660
1008.806641 0.228349
1008.369141 0.234460
1007.662109 0.228778
1007.237305 0.231450
1006.516602 0.234571
1006.105469 0.225480
1005.371094 0.217934
1004.972656 0.234806
1004.224609 0.241273
1003.840820 0.235743
1003.079102 0.236338
1002.708008 0.239145
1001.932617 0.232866
1001.575195 0.240081
1000.785156 0.233780
1000.441406 0.245945
999.638672 0.236641
999.307617 0.251314
998.491211 0.229278
998.173828 0.244856
997.342773 0.233598
997.040039 0.235938
996.195313 0.233537
995.906250 0.236381
995.046875 0.232504
994.771484 0.238793
993.898438 0.215423
993.636719 0.231852
992.749023 0.210992
992.501953 0.231311
991.599609 0.223574
991.367188 0.226341
990.450195 0.214769
990.231445 0.207600
989.300781 0.208884
989.095703 0.222803
987.959961 0.211938
986.824219 0.220743
985.687500 0.205459
984.550781 0.204924
983.414063 0.220603
982.277344 0.210732
981.139648 0.211670
980.001953 0.225373
978.864258 0.220908
977.726563 0.219389
976.587891 0.212963
975.449219 0.214390
974.310547 0.219740
973.171875 0.216261
972.032227 0.222588
970.893555 0.217149
969.752930 0.217593
968.613281 0.221467
967.473633 0.226809
966.333008 0.236556
965.192383 0.227202
964.050781 0.241840
962.910156 0.232979
961.768555 0.235376
960.626953 0.245600
959.485352 0.220602
958.342773 0.222022
957.200195 0.221486
956.057617 0.220461
954.915039 0.211128
953.771484 0.207175
952.628906 0.203222
951.485352 0.208552
950.340820 0.196788
949.197266 0.187470
948.052734 0.193775
946.908203 0.197638
945.762695 0.188326
944.618164 0.195115
943.472656 0.201900
942.327148 0.204783
941.181641 0.186702
940.035156 0.205670
938.888672 0.197830
937.742188 0.198762
936.595703 0.200180
935.448242 0.197216
934.301758 0.199608
933.154297 0.203946
932.005859 0.208282
930.858398 0.205805
929.709961 0.199437
928.561523 0.201339
927.413086 0.222204
926.263672 0.227503
925.114258 0.232801
923.964844 0.221575
922.815430 0.233187
921.665039 0.227308
920.514648 0.219975
919.364258 0.223812
918.213867 0.221337
917.062500 0.216922
915.911133 0.210568
914.759766 0.213433
913.608398 0.209507
912.456055 0.226917
911.303711 0.212325
910.151367 0.209372
908.999023 0.219987
907.845703 0.214610
906.692383 0.241203
905.539063 0.227108
904.385742 0.225607
903.231445 0.236207
902.077148 0.231316
900.922852 0.243846
899.768555 0.239440
898.613281 0.249544
897.458008 0.247072
896.302734 0.252820
895.146484 0.253248
893.991211 0.256576
892.834961 0.280192
891.678711 0.284961
890.521484 0.304214
889.364258 0.320080
888.207031 0.332560
887.049805 0.346965
885.892578 0.371978
884.734375 0.375756
883.576172 0.381461
882.417969 0.378968
881.258789 0.360086
880.099609 0.346032
878.940430 0.334874
877.781250 0.309270
876.621094 0.329912
875.461914 0.319247
874.301758 0.295107
873.140625 0.279641
871.980469 0.258888
870.819336 0.254021
869.658203 0.255409
868.496094 0.249102
867.334961 0.242797
866.172852 0.237457
865.010742 0.235002
863.847656 0.242158
862.685547 0.233939
861.522461 0.237250
860.359375 0.230476
859.195313 0.235226
858.031250 0.231335
856.867188 0.250958
855.703125 0.230754
854.539063 0.232143
853.374023 0.240724
852.208984 0.229644
851.043945 0.228635
849.877930 0.230502
848.711914 0.229494
847.545898 0.242856
846.379883 0.245676
845.212891 0.244664
844.046875 0.253227
842.879883 0.250779
841.711914 0.257423
840.544922 0.273153
839.376953 0.279789
838.208008 0.314633
837.040039 0.345638
835.871094 0.381409
834.702148 0.439623
833.533203 0.508800
832.364258 0.636696
831.194336 0.758806
830.024414 0.888023
828.854492 1.000000
827.683594 0.985941
826.513672 0.954234
825.342773 0.851944
824.170898 0.781174
823.000000 0.678013
821.828125 0.584431
820.656250 0.518056
819.483398 0.465528
818.311523 0.423504
817.138672 0.371973
815.965820 0.335225
814.791992 0.313252
813.619141 0.307472
812.445313 0.293604
811.270508 0.284024
810.096680 0.285864
808.921875 0.270584
807.747070 0.264343
806.572266 0.248124
805.396484 0.257573
804.221680 0.243738
803.045898 0.250334
801.869141 0.256453
800.693359 0.244051
799.516602 0.243522
798.339844 0.249638
797.162109 0.242466
795.985352 0.238617
794.807617 0.252318
793.628906 0.248943
792.451172 0.244147
791.272461 0.257364
790.093750 0.262994
788.915039 0.257250
787.735352 0.271876
786.556641 0.271343
785.375977 0.281225
784.196289 0.276429
783.015625 0.257911
781.835938 0.256908
780.654297 0.246917
779.473633 0.246390
778.291992 0.255791
777.110352 0.244389
775.928711 0.235356
774.747070 0.241446
773.564453 0.231472
772.381836 0.239921
771.199219 0.233257
770.015625 0.238398
768.832031 0.252504
767.648438 0.250089
766.464844 0.238711
765.280273 0.241016
764.095703 0.256052
762.911133 0.280510
761.725586 0.280919
760.541016 0.315727
759.355469 0.325551
758.168945 0.349500
756.983398 0.393218
755.796875 0.407725
754.610352 0.400574
753.422852 0.374130
752.236328 0.351933
751.048828 0.321279
749.861328 0.308039
748.672852 0.283521
747.485352 0.298030
746.296875 0.286684
745.107422 0.277692
743.918945 0.271053
742.729492 0.271932
741.540039 0.263419
740.349609 0.255379
739.160156 0.243119
737.969727 0.244003
736.779297 0.242072
735.587891 0.244363
734.397461 0.229771
733.206055 0.237221
732.013672 0.239043
730.822266 0.231960
729.629883 0.229565
728.437500 0.236540
727.244141 0.232740
726.051758 0.226601
724.858398 0.241529
723.665039 0.232583
722.470703 0.220834
721.276367 0.216575
720.082031 0.218864
718.887695 0.227698
717.693359 0.235594
716.498047 0.234139
715.302734 0.239693
714.106445 0.217217
712.911133 0.231178
711.714844 0.235796
710.517578 0.231074
709.321289 0.238956
708.124023 0.240302
706.926758 0.228585
705.729492 0.241593
704.531250 0.232213
703.333008 0.250341
702.134766 0.230243
700.936523 0.247432
699.737305 0.245047
698.538086 0.250581
697.338867 0.249593
696.138672 0.249537
694.938477 0.258789
693.738281 0.262919
692.538086 0.252159
691.336914 0.258148
690.135742 0.283201
688.934570 0.265470
687.732422 0.277030
686.531250 0.276968
685.328125 0.274117
684.125977 0.270339
682.923828 0.269813
681.720703 0.280895
680.516602 0.287330
679.313477 0.281696
678.109375 0.291839
676.905273 0.282032
675.701172 0.294489
674.496094 0.293959
673.291992 0.304554
672.085938 0.324876
670.880859 0.303489
669.674805 0.296008
668.468750 0.303351
667.262695 0.296336
666.055664 0.299046
664.849609 0.291110
663.642578 0.306314
662.434570 0.284964
661.227539 0.272874
660.019531 0.256166
658.810547 0.263504
657.602539 0.270839
656.393555 0.267543
655.184570 0.268867
653.975586 0.282662
652.765625 0.265512
651.555664 0.273300
650.345703 0.268161
649.134766 0.245950
647.924805 0.245894
646.712891 0.268438
645.501953 0.268377
644.291016 0.263244
643.079102 0.254887
641.866211 0.264967
640.654297 0.259378
639.441406 0.257015
638.228516 0.244984
637.015625 0.252754
635.801758 0.253157
634.587891 0.246196
633.374023 0.266383
632.160156 0.253443
630.945313 0.256144
629.730469 0.254246
628.514648 0.255567
627.299805 0.255048
626.083984 0.264179
624.868164 0.248501
623.651367 0.247525
622.435547 0.261701
621.218750 0.253838
620.000977 0.260204
618.784180 0.279873
617.566406 0.288065
616.347656 0.276075
615.129883 0.276929
613.911133 0.282824
612.692383 0.257095
611.473633 0.261618
610.253906 0.277132
609.034180 0.266077
607.814453 0.279752
606.594727 0.295708
605.374023 0.301132
604.153320 0.303808
602.931641 0.287727
601.710938 0.266166
600.489258 0.265648
599.267578 0.257358
598.044922 0.246330
596.822266 0.224342
595.599609 0.231142
594.376953 0.244790
593.153320 0.239711
591.929688 0.235090
590.706055 0.233667
589.481445 0.236350
588.257813 0.240857
587.032227 0.229400
585.807617 0.228435
584.582031 0.226103
583.356445 0.228785
582.130859 0.222353
580.905273 0.230956
579.678711 0.244110
578.452148 0.245420
577.224609 0.235348
575.997070 0.231197
574.769531 0.237969
573.541992 0.224721
572.313477 0.228762
571.084961 0.228254
569.856445 0.228656
568.627930 0.229512
567.398438 0.243998
566.168945 0.238490
564.939453 0.236618
563.708984 0.224758
562.478516 0.226521
561.248047 0.233276
560.016602 0.232768
558.785156 0.244962
557.553711 0.234020
556.322266 0.226711
555.089844 0.227564
553.857422 0.223886
552.625000 0.239692
551.391602 0.230576
550.158203 0.231881
548.924805 0.234543
547.690430 0.222266
546.457031 0.226287
545.222656 0.242523
543.987305 0.239300
542.752930 0.240149
541.517578 0.253657
540.281250 0.235516
539.045898 0.251730
537.809570 0.241731
536.573242 0.236706
535.335938 0.245682
534.099609 0.227113
532.861328 0.232928
531.624023 0.231971
530.385742 0.242294
529.148438 0.240432
527.909180 0.248494
526.670898 0.233105
525.431641 0.235755
524.192383 0.237953
522.952148 0.227985
521.712891 0.231535
520.472656 0.236885
519.231445 0.245384
517.991211 0.252978
516.750000 0.243018
515.508789 0.248360
514.266602 0.247851
513.024414 0.247343
511.782227 0.256727
510.540039 0.240934
509.296875 0.247168
508.053711 0.260140
506.810547 0.261426
505.566406 0.271244
504.322266 0.252323
503.078125 0.258547
501.833008 0.268808
500.587891 0.267398
499.342773 0.265541
498.097656 0.269962
496.851563 0.269002
495.605469 0.276558
494.359375 0.280077
493.112305 0.284491
491.865234 0.285320
490.618164 0.291969
489.370117 0.295929
488.123047 0.298545
486.874023 0.302501
485.625977 0.314509
484.376953 0.295201
483.127930 0.322408
481.878906 0.312049
480.628906 0.313316
479.378906 0.318604
478.128906 0.318528
476.877930 0.331405
475.626953 0.340256
474.375977 0.337943
473.125000 0.363749
471.873047 0.364555
470.621094 0.371606
469.368164 0.384897
468.115234 0.395061
466.862305 0.427509
465.609375 0.434092
464.355469 0.487458
463.102539 0.489569
461.847656 0.533542
460.593750 0.599313
459.338867 0.664606
458.083984 0.726753
456.828125 0.779526
455.572266 0.868306
454.316406 0.856090
453.060547 0.840324
451.803711 0.790337
450.546875 0.709267
449.290039 0.631345
448.032227 0.553016
446.774414 0.518245
445.516602 0.480827
444.257813 0.452304
442.999023 0.433557
441.740234 0.417925
440.481445 0.400082
439.221680 0.391117
437.961914 0.396787
436.701172 0.379405
435.441406 0.396596
434.180664 0.421752
432.918945 0.409692
431.658203 0.419778
430.396484 0.427203
429.133789 0.397446
427.872070 0.388058
426.609375 0.388407
425.346680 0.381679
424.083008 0.373186
422.819336 0.361602
421.555664 0.360189
420.291016 0.367172
419.027344 0.377684
417.762695 0.364786
416.497070 0.369996
415.231445 0.374762
413.965820 0.369817
412.700195 0.380316
411.433594 0.368755
410.166992 0.383660
408.900391 0.367254
407.632813 0.380388
406.365234 0.386465
405.097656 0.386371
403.830078 0.392444
402.561523 0.398954
401.291992 0.401938
400.023438 0.417685
398.753906 0.423304
397.484375 0.436399
396.214844 0.427056
394.944336 0.463008
393.673828 0.469929
392.402344 0.456190
391.130859 0.478927
389.859375 0.465632
388.587891 0.490112
387.315430 0.500090
386.042969 0.488994
384.770508 0.509940
383.497070 0.509376
382.223633 0.521533
380.950195 0.501234
379.676758 0.497604
378.402344 0.511508
377.126953 0.503057
375.852539 0.508629
374.577148 0.527338
373.301758 0.513634
372.025391 0.504315
370.749023 0.490186
369.472656 0.511068
368.196289 0.498257
366.918945 0.476267
365.641602 0.488393
364.363281 0.494830
363.085938 0.494271
361.807617 0.488032
360.528320 0.482234
359.249023 0.484735
357.969727 0.484179
356.690430 0.489298
355.410156 0.472595
354.129883 0.467243
352.849609 0.465819
351.568359 0.460035
350.287109 0.480847
349.005859 0.455014
347.723633 0.464923
346.441406 0.462195
345.159180 0.456419
343.875977 0.445420
342.592773 0.428769
341.309570 0.436061
340.026367 0.436388
338.742188 0.421926
337.457031 0.420081
336.172852 0.413891
334.887695 0.405095
333.602539 0.414989
332.316406 0.394901
331.030273 0.399147
329.744141 0.387323
328.457031 0.384622
327.170898 0.391471
325.882813 0.397448
324.595703 0.384335
323.307617 0.409393
322.019531 0.399752
320.730469 0.388816
319.441406 0.406053
318.152344 0.420682
316.863281 0.395888
315.573242 0.404450
314.283203 0.399586
312.992188 0.397755
311.701172 0.412368
310.410156 0.417888
309.119141 0.413459
307.827148 0.424164
306.535156 0.442646
305.242188 0.436917
303.950195 0.448472
302.656250 0.444904
301.363281 0.452134
300.069336 0.482241
298.775391 0.516650
297.480469 0.519972
296.186523 0.538391
294.891602 0.549901
293.595703 0.579083
292.299805 0.595318
291.003906 0.614561
289.708008 0.620007
288.411133 0.676710
287.114258 0.697210
285.816406 0.712964
284.518555 0.713644
283.220703 0.745738
281.922852 0.747270
280.624023 0.751382
279.325195 0.757641
278.025391 0.754870
276.725586 0.737488
275.425781 0.737731
274.125977 0.748712
272.825195 0.754964
271.523438 0.780961
270.222656 0.787631
268.920898 0.798587
267.619141 0.832705
266.316406 0.875812
265.013672 0.913751
263.710938 0.949099
262.408203 1.003715
261.104492 1.027881
259.799805 1.073881
258.496094 1.094163
257.191406 1.135412
255.886719 1.197186
254.581055 1.244379
253.275391 1.224809
251.969727 1.282662
250.663086 1.344762
249.356445 1.363227
248.049805 1.404759
246.742188 1.430889
245.434570 1.458714
244.126953 1.500190
242.818359 1.541644
241.509766 1.534845
240.201172 1.505861
238.891602 1.502915
237.582031 1.485895
236.271484 1.467178
234.961914 1.442929
233.650391 1.427215
232.339844 1.410657
231.028320 1.377496
229.716797 1.335409
228.405273 1.315907
227.092773 1.312162
225.779297 1.276931
224.466797 1.262989
223.153320 1.246076
221.839844 1.238950
220.525391 1.205900
219.210938 1.205162
217.896484 1.208673
216.581055 1.190946
215.265625 1.157941
213.950195 1.149999
212.633789 1.145456
211.317383 1.146007
210.000977 1.145709
208.683594 1.104276
207.366211 1.130698
206.048828 1.130403
204.730469 1.094938
203.412109 1.092111
202.092773 1.104531
200.773438 1.063596
199.454102 1.040036
198.133789 1.063040
196.814453 1.037800
195.493164 1.030338
194.172852 1.055017
192.851563 1.033180
191.529297 1.041362
190.208008 1.045314
188.885742 1.034480
187.562500 1.035053
186.239258 1.056312
184.916016 1.036197
183.592773 1.069681
182.268555 1.077415
180.944336 1.090205
179.619141 1.100037
178.293945 1.111971
176.968750 1.127270
175.643555 1.151408
174.317383 1.140153
172.990234 1.167222
171.664063 1.182489
170.336914 1.229732
169.008789 1.226041
167.680664 1.237494
166.352539 1.246417
165.024414 1.272572
163.695313 1.313003
162.366211 1.369799
161.036133 1.370276
159.706055 1.431226
158.375977 1.439242
157.044922 1.545472
155.713867 1.592478
154.382813 1.632747
153.050781 1.718289
151.718750 1.773596
150.385742 1.826777
149.053711 1.855205
147.719727 1.935567
146.386719 1.964369
145.052734 1.955887
143.717773 1.975876
142.383789 1.994598
141.048828 2.050965
139.712891 2.038703
138.377930 2.059900
137.041016 2.066454
135.705078 2.069242
134.368164 2.042780
133.031250 2.044319
131.693359 2.018713
130.355469 2.054491
129.017578 2.048511
127.678711 2.058808
126.339844 2.063675
125.000977 2.038512
123.661133 2.069648
122.321289 2.095765
120.980469 2.098532
119.639648 2.092548
118.298828 2.073656
116.957031 2.174687
115.615234 2.181590
114.273438 2.189321
112.930664 2.177910
111.587891 2.216414
110.244141 2.200426
108.900391 2.207310
107.556641 2.168061
106.211914 2.118445
104.867188 2.008216
103.522461 1.894308
102.176758 1.755970
100.831055 1.555041
99.484375 1.378700
98.137695 1.173420
