3198.529297 0.015089
3197.824219 0.028801
3197.119141 0.005485
3196.414063 0.015082
3195.708008 0.016450
3195.001953 0.008224
3194.296875 0.010963
3193.590820 0.012332
3192.884766 0.019180
3192.178711 0.013698
3191.472656 0.010957
3190.765625 0.017802
3190.059570 0.004107
3189.352539 0.020534
3188.646484 0.013687
3187.939453 0.008211
3187.232422 -0.001368
3186.525391 0.023257
3185.818359 0.020518
3185.111328 0.024618
3184.404297 0.021879
3183.696289 0.015039
3182.989258 0.010936
3182.281250 0.004100
3181.573242 0.016399
3180.865234 0.015030
3180.157227 0.025956
3179.449219 0.006830
3178.741211 0.019120
3178.033203 0.021848
3177.324219 0.002731
3176.616211 0.019111
3175.907227 0.020472
3175.198242 0.013646
3174.489258 0.009551
3173.780273 0.023191
3173.071289 0.015003
3172.362305 0.013637
3171.652344 0.012272
3170.943359 0.006816
3170.233398 0.021809
3169.523438 0.013629
3168.814453 0.021802
3168.104492 0.012262
3167.394531 0.021795
3166.683594 0.014982
3165.973633 0.006809
3165.263672 0.013615
3164.552734 0.008168
3163.841797 0.014972
3163.130859 0.034022
3162.420898 0.014967
3161.709961 0.020406
3160.998047 0.014962
3160.287109 0.021760
3159.576172 0.017677
3158.864258 0.012236
3158.153320 0.019031
3157.441406 0.021746
3156.729492 0.009512
3156.017578 0.012228
3155.305664 0.024452
3154.593750 0.009507
3153.880859 0.023086
3153.168945 0.012220
3152.456055 0.021721
3151.744141 0.027146
3151.031250 0.018999
3150.318359 0.024424
3149.605469 0.014923
3148.892578 0.018990
3148.178711 0.023056
3147.465820 0.023052
3146.751953 0.014913
3146.039063 0.008133
3145.325195 0.024396
3144.611328 0.018971
3143.897461 0.018968
3143.183594 0.016256
3142.468750 0.031152
3141.754883 0.024375
3141.041016 0.004062
3140.326172 0.028429
3139.611328 0.017596
3138.896484 0.023006
3138.181641 0.012178
3137.466797 0.010823
3136.751953 0.014879
3136.037109 0.016229
3135.321289 0.018930
3134.605469 0.018927
3133.890625 0.020276
3133.174805 0.018921
3132.458984 0.025674
3131.743164 0.020265
3131.027344 0.018911
3130.310547 0.022960
3129.594727 0.027007
3128.877930 0.008101
3128.161133 0.017549
3127.445313 0.028343
3126.728516 0.024290
3126.010742 0.014841
3125.293945 0.013490
3124.577148 0.020231
3123.859375 0.018879
3123.142578 0.021573
3122.424805 0.021569
3121.707031 0.002696
3120.989258 0.017519
3120.271484 0.024253
3119.553711 0.016166
3118.835938 0.018857
3118.117188 0.013467
3117.399414 0.036355
3116.680664 0.020194
3115.961914 0.025574
3115.243164 0.024224
3114.524414 0.029602
3113.805664 0.006727
3113.086914 0.026902
3112.367188 0.017483
3111.648438 0.028237
3110.928711 0.020166
3110.208984 0.013442
3109.489258 0.021503
3108.769531 0.010750
3108.049805 0.014778
3107.329102 0.017462
3106.609375 0.021489
3105.888672 0.030884
3105.168945 0.029537
3104.448242 0.021477
3103.727539 0.014763
3103.006836 0.022812
3102.285156 0.018783
3101.564453 0.017438
3100.843750 0.024141
3100.122070 0.025478
3099.400391 0.021452
3098.678711 0.026810
3097.957031 0.029486
3097.235352 0.024120
3096.513672 0.008039
3095.791992 0.020093
3095.069336 0.020090
3094.346680 0.025443
3093.625000 0.012050
3092.902344 0.029450
3092.179688 0.016061
3091.457031 0.025425
3090.733398 0.014717
3090.010742 0.033443
3089.287109 0.028087
3088.564453 0.022733
3087.840820 0.029414
3087.117188 0.025399
3086.393555 0.008019
3085.669922 0.018708
3084.946289 0.032066
3084.221680 0.016030
3083.498047 0.021370
3082.773438 0.014689
3082.048828 0.020027
3081.324219 0.029368
3080.599609 0.024024
3079.875000 0.020017
3079.149414 0.022681
3078.424805 0.026679
3077.699219 0.030676
3076.974609 0.026670
3076.249023 0.015999
3075.523438 0.018662
3074.797852 0.015994
3074.071289 0.022654
3073.345703 0.018653
3072.619141 0.022646
3071.893555 0.026637
3071.166992 0.021306
3070.440430 0.011983
3069.713867 0.023961
3068.987305 0.025287
3068.259766 0.022622
3067.533203 0.018626
3066.805664 0.025274
3066.079102 0.025270
3065.351563 0.018616
3064.624023 0.026590
3063.896484 0.023927
3063.168945 0.033226
3062.440430 0.019932
3061.712891 0.022586
3060.984375 0.021253
3060.255859 0.013281
3059.527344 0.027885
3058.798828 0.037173
3058.070313 0.025220
3057.341797 0.039814
3056.613281 0.007961
3055.883789 0.018573
3055.154297 0.030508
3054.424805 0.027850
3053.695313 0.019889
3052.965820 0.026515
3052.236328 0.033137
3051.506836 0.023855
3050.776367 0.029150
3050.046875 0.031795
3049.316406 0.033114
3048.585938 0.031783
3047.855469 0.023833
3047.125000 0.031772
3046.393555 0.023825
3045.663086 0.029114
3044.931641 0.018524
3044.201172 0.022489
3043.469727 0.029098
3042.738281 0.027770
3042.006836 0.023799
3041.275391 0.026439
3040.542969 0.018504
3039.811523 0.025108
3039.079102 0.026424
3038.346680 0.023778
3037.614258 0.027735
3036.881836 0.021128
3036.149414 0.014523
3035.416992 0.034321
3034.683594 0.026396
3033.951172 0.021113
3033.217773 0.026386
3032.484375 0.029019
3031.750977 0.039565
3031.017578 0.025053
3030.284180 0.025049
3029.549805 0.015817
3028.816406 0.022404
3028.082031 0.032941
3027.347656 0.026348
3026.613281 0.034246
3025.878906 0.039508
3025.144531 0.028967
3024.410156 0.023696
3023.674805 0.032905
3022.939453 0.044743
3022.205078 0.039472
3021.469727 0.034202
3020.734375 0.036827
3019.999023 0.032875
3019.262695 0.044702
3018.527344 0.046008
3017.791016 0.031543
3017.054688 0.028909
3016.318359 0.049924
3015.582031 0.036780
3014.845703 0.040713
3014.109375 0.040706
3013.373047 0.040698
3012.635742 0.024939
3011.898438 0.028872
3011.161133 0.028867
3010.424805 0.057723
3009.686523 0.044596
3008.949219 0.051145
3008.211914 0.041957
3007.473633 0.051126
3006.736328 0.051116
3005.998047 0.038003
3005.259766 0.039306
3004.521484 0.039299
3003.782227 0.047150
3003.043945 0.060236
3002.305664 0.051060
3001.566406 0.051051
3000.827148 0.051041
3000.087891 0.057574
2999.348633 0.045789
2998.609375 0.041857
2997.870117 0.051004
2997.129883 0.050994
2996.389648 0.040526
2995.650391 0.056204
2994.910156 0.048352
2994.169922 0.048343
2993.429688 0.044415
2992.688477 0.050938
2991.948242 0.069210
2991.207031 0.054836
2990.465820 0.069185
2989.725586 0.061341
2988.983398 0.048281
2988.242188 0.058709
2987.500977 0.065220
2986.759766 0.061296
2986.017578 0.073019
2985.275391 0.050843
2984.533203 0.070385
2983.791016 0.061250
2983.048828 0.058633
2982.306641 0.062530
2981.563477 0.063821
2980.821289 0.069018
2980.078125 0.079421
2979.334961 0.054673
2978.591797 0.078090
2977.848633 0.063761
2977.105469 0.070255
2976.361328 0.071542
2975.618164 0.075431
2974.874023 0.081918
2974.129883 0.068902
2973.385742 0.071489
2972.641602 0.080572
2971.897461 0.077959
2971.152344 0.088337
2970.408203 0.088320
2969.663086 0.102588
2968.917969 0.098674
2968.172852 0.092165
2967.427734 0.079169
2966.682617 0.094726
2965.936523 0.111574
2965.191406 0.110256
2964.445313 0.111532
2963.699219 0.095951
2962.953125 0.116676
2962.207031 0.117950
2961.460938 0.133479
2960.713867 0.094584
2959.967773 0.111407
2959.220703 0.123042
2958.473633 0.126904
2957.726563 0.132059
2956.979492 0.137212
2956.232422 0.138480
2955.484375 0.142336
2954.737305 0.138428
2953.989258 0.142283
2953.241211 0.148722
2952.493164 0.147401
2951.745117 0.151251
2950.997070 0.158978
2950.248047 0.165409
2949.500000 0.152458
2948.750977 0.148554
2948.001953 0.154983
2947.252930 0.144624
2946.503906 0.160089
2945.754883 0.165222
2945.004883 0.144542
2944.255859 0.143224
2943.505859 0.145777
2942.755859 0.149619
2942.005859 0.172803
2941.255859 0.156009
2940.504883 0.172738
2939.754883 0.148217
2939.003906 0.162364
2938.252930 0.172640
2937.502930 0.154573
2936.750977 0.141665
2936.000000 0.149364
2935.249023 0.136462
2934.497070 0.154456
2933.746094 0.158287
2932.994141 0.154397
2932.242188 0.137645
2931.490234 0.138905
2930.738281 0.129877
2929.985352 0.145280
2929.233398 0.127257
2928.480469 0.149081
2927.727539 0.125924
2926.974609 0.131038
2926.221680 0.166978
2925.468750 0.132273
2924.715820 0.138667
2923.961914 0.142492
2923.208008 0.146315
2922.455078 0.143721
2921.701172 0.129581
2920.946289 0.139818
2920.192383 0.146203
2919.438477 0.124377
2918.683594 0.125636
2917.928711 0.114076
2917.173828 0.125588
2916.418945 0.130689
2915.664063 0.140912
2914.909180 0.122954
2914.153320 0.121650
2913.398438 0.112665
2912.642578 0.138244
2911.886719 0.115181
2911.130859 0.113880
2910.375000 0.116416
2909.619141 0.121510
2908.862305 0.120208
2908.105469 0.112514
2907.349609 0.107379
2906.592773 0.125251
2905.835938 0.117560
2905.078125 0.098374
2904.321289 0.104742
2903.563477 0.108553
2902.806641 0.086826
2902.048828 0.091916
2901.291016 0.085516
2900.533203 0.112298
2899.774414 0.107173
2899.016602 0.085467
2898.257813 0.109682
2897.500000 0.093085
2896.741211 0.089242
2895.982422 0.085401
2895.222656 0.073915
2894.463867 0.100658
2893.705078 0.089173
2892.945313 0.084061
2892.185547 0.081498
2891.425781 0.072571
2890.666016 0.085286
2889.906250 0.083997
2889.146484 0.078891
2888.385742 0.083964
2887.625000 0.072501
2886.864258 0.076302
2886.103516 0.083916
2885.342773 0.073730
2884.582031 0.080070
2883.821289 0.076243
2883.059570 0.077498
2882.297852 0.076213
2881.536133 0.077468
2880.774414 0.087611
2880.012695 0.073630
2879.250977 0.064731
2878.488281 0.065987
2877.726563 0.078662
2876.963867 0.079915
2876.201172 0.069754
2875.438477 0.072276
2874.674805 0.074798
2873.912109 0.059573
2873.149414 0.070967
2872.385742 0.081089
2871.622070 0.073473
2870.858398 0.074725
2870.094727 0.075977
2869.330078 0.072164
2868.566406 0.059492
2867.801758 0.065808
2867.038086 0.054408
2866.273438 0.074638
2865.508789 0.073359
2864.743164 0.075874
2863.978516 0.078388
2863.212891 0.060675
2862.448242 0.069510
2861.682617 0.042962
2860.916992 0.065693
2860.151367 0.069470
2859.384766 0.068193
2858.619141 0.066917
2857.852539 0.068167
2857.086914 0.054270
2856.320313 0.073187
2855.553711 0.058034
2854.786133 0.063068
2854.019531 0.058011
2853.251953 0.068087
2852.485352 0.057989
2851.717773 0.066800
2850.950195 0.049145
2850.182617 0.078113
2849.414063 0.069280
2848.646484 0.057932
2847.877930 0.057920
2847.110352 0.056650
2846.341797 0.049087
2845.573242 0.071729
2844.803711 0.062908
2844.035156 0.064153
2843.266602 0.060368
2842.497070 0.066643
2841.727539 0.074173
2840.958008 0.049020
2840.188477 0.059064
2839.418945 0.067847
2838.648438 0.065321
2837.878906 0.056517
2837.108398 0.048972
2836.337891 0.069049
2835.567383 0.061505
2834.795898 0.066512
2834.025391 0.048933
2833.254883 0.053942
2832.483398 0.063965
2831.711914 0.073984
2830.940430 0.056417
2830.168945 0.062673
2829.397461 0.053889
2828.625000 0.056384
2827.852539 0.066395
2827.081055 0.062624
2826.308594 0.067621
2825.536133 0.057591
2824.762695 0.071349
2823.990234 0.068832
2823.216797 0.086336
2822.444336 0.055044
2821.670898 0.070042
2820.897461 0.052521
2820.123047 0.060012
2819.349609 0.062501
2818.576172 0.048741
2817.801758 0.054979
2817.027344 0.058716
2816.252930 0.067447
2815.478516 0.058692
2814.704102 0.066172
2813.928711 0.062414
2813.154297 0.073634
2812.378906 0.052407
2811.603516 0.057387
2810.828125 0.064859
2810.052734 0.059858
2809.276367 0.074808
2808.500977 0.072300
2807.724609 0.052345
2806.948242 0.064795
2806.171875 0.068520
2805.395508 0.072243
2804.619141 0.056039
2803.841797 0.048558
2803.064453 0.065976
2802.288086 0.054761
2801.510742 0.064705
2800.733398 0.054740
2799.955078 0.057216
2799.177734 0.060936
2798.399414 0.057194
2797.621094 0.062155
2796.842773 0.064628
2796.064453 0.065858
2795.286133 0.062117
2794.507813 0.052168
2793.728516 0.067060
2792.950195 0.057114
2792.170898 0.067033
2791.391602 0.044680
2790.611328 0.065766
2789.832031 0.048384
2789.052734 0.062018
2788.272461 0.079368
2787.492188 0.064473
2786.711914 0.047106
2785.931641 0.053293
2785.151367 0.057000
2784.370117 0.048316
2783.588867 0.055739
2782.808594 0.053251
2782.027344 0.070574
2781.246094 0.070560
2780.463867 0.070546
2779.682617 0.054446
2778.900391 0.064332
2778.119141 0.054424
2777.336914 0.054413
2776.554688 0.070475
2775.771484 0.060572
2774.989258 0.051908
2774.206055 0.066726
2773.423828 0.080302
2772.640625 0.060523
2771.857422 0.071625
2771.074219 0.064203
2770.290039 0.054315
2769.506836 0.064177
2768.722656 0.061696
2767.938477 0.064151
2767.154297 0.055505
2766.370117 0.048094
2765.585938 0.061647
2764.800781 0.067798
2764.016602 0.057925
2763.231445 0.069003
2762.446289 0.073917
2761.661133 0.064048
2760.875000 0.051721
2760.089844 0.060329
2759.303711 0.059086
2758.518555 0.066458
2757.732422 0.071367
2756.945313 0.059050
2756.159180 0.076258
2755.373047 0.066405
2754.585938 0.057785
2753.798828 0.063919
2753.012695 0.066364
2752.224609 0.071266
2751.437500 0.063881
2750.650391 0.060183
2749.862305 0.069995
2749.074219 0.068753
2748.287109 0.073649
2747.499023 0.063816
2746.709961 0.072392
2745.921875 0.071151
2745.132813 0.066230
2744.344727 0.072348
2743.555664 0.063752
2742.766602 0.062513
2741.977539 0.056373
2741.187500 0.058812
2740.398438 0.072275
2739.608398 0.077159
2738.818359 0.057552
2738.028320 0.062437
2737.238281 0.064872
2736.448242 0.066083
2735.657227 0.066069
2734.866211 0.061163
2734.075195 0.057481
2733.284180 0.072143
2732.493164 0.074573
2731.702148 0.066002
2730.910156 0.067211
2730.119141 0.062310
2729.327148 0.062297
2728.535156 0.068391
2727.743164 0.070819
2726.950195 0.063480
2726.158203 0.057365
2725.365234 0.069556
2724.572266 0.070761
2723.779297 0.060989
2722.986328 0.062196
2722.193359 0.075595
2721.399414 0.071923
2720.606445 0.063377
2719.812500 0.067019
2719.018555 0.051168
2718.224609 0.059684
2717.430664 0.073067
2716.635742 0.053572
2715.840820 0.065734
2715.046875 0.074239
2714.251953 0.064490
2713.456055 0.066910
2712.661133 0.054733
2711.866211 0.065666
2711.070313 0.066869
2710.274414 0.077795
2709.478516 0.065626
2708.682617 0.071688
2707.886719 0.052236
2707.089844 0.051011
2706.293945 0.068001
2705.497070 0.060702
2704.700195 0.066759
2703.903320 0.074027
2703.105469 0.076438
2702.308594 0.065505
2701.510742 0.077619
2700.712891 0.064265
2699.915039 0.075163
2699.117188 0.075147
2698.319336 0.069073
2697.520508 0.071482
2696.722656 0.064199
2695.923828 0.060553
2695.125000 0.071438
2694.326172 0.071423
2693.526367 0.068988
2692.727539 0.071393
2691.927734 0.076218
2691.127930 0.068945
2690.328125 0.059256
2689.528320 0.056826
2688.728516 0.070111
2687.927734 0.061637
2687.126953 0.070082
2686.326172 0.059195
2685.525391 0.071261
2684.724609 0.067623
2683.923828 0.066402
2683.122070 0.080873
2682.321289 0.061547
2681.519531 0.071187
2680.717773 0.069966
2679.915039 0.072364
2679.113281 0.065114
2678.310547 0.072334
2677.508789 0.065087
2676.706055 0.072304
2675.903320 0.069879
2675.099609 0.073478
2674.296875 0.063828
2673.493164 0.063815
2672.690430 0.061394
2671.886719 0.071010
2671.083008 0.061369
2670.278320 0.058950
2669.474609 0.070966
2668.669922 0.072153
2667.865234 0.066127
2667.060547 0.068517
2666.255859 0.066099
2665.451172 0.085310
2664.646484 0.075682
2663.840820 0.072063
2663.035156 0.082855
2662.229492 0.068431
2661.423828 0.064816
2660.618164 0.075603
2659.811523 0.075587
2659.004883 0.073172
2658.199219 0.063563
2657.391602 0.071943
2656.584961 0.070729
2655.778320 0.079104
2655.033203 0.074457
2654.970703 0.071898
2654.227539 0.086466
2654.164063 0.069486
2653.421875 0.067241
2653.356445 0.064681
2652.616211 0.055225
2652.548828 0.071852
2651.810547 0.063618
2651.740234 0.073035
2651.004883 0.068408
2650.932617 0.076610
2650.198242 0.080397
2650.124023 0.071807
2649.392578 0.071986
2649.316406 0.065809
2648.585938 0.076772
2648.507813 0.069384
2647.779297 0.073162
2647.699219 0.074154
2646.972656 0.081544
2646.889648 0.056202
2646.166016 0.070740
2646.081055 0.077709
2645.359375 0.069530
2645.271484 0.071717
2644.552734 0.076710
2644.461914 0.082457
2643.745117 0.063515
2643.652344 0.086024
2642.938477 0.052721
2642.842773 0.066893
2642.130859 0.082662
2642.033203 0.076433
2641.323242 0.081451
2641.222656 0.070447
2640.515625 0.074252
2640.413086 0.077595
2639.708008 0.083819
2639.602539 0.083546
2638.899414 0.073030
2638.791992 0.069209
2638.091797 0.080201
2637.981445 0.079932
2637.283203 0.073006
2637.169922 0.075144
2636.475586 0.072994
2636.359375 0.073936
2635.666992 0.078965
2635.547852 0.076304
2634.858398 0.074167
2634.736328 0.075096
2634.049805 0.074154
2633.924805 0.078656
2633.241211 0.078926
2633.113281 0.075065
2632.431641 0.075326
2632.300781 0.083387
2631.623047 0.070531
2631.489258 0.084561
2630.813477 0.075301
2630.676758 0.079780
2630.003906 0.070508
2629.864258 0.075001
2629.194336 0.069302
2629.051758 0.080936
2628.384766 0.070485
2628.238281 0.069019
2627.575195 0.075251
2627.425781 0.079712
2626.765625 0.076433
2626.612305 0.074938
2625.955078 0.082390
2625.798828 0.076111
2625.145508 0.078795
2624.985352 0.082040
2624.334961 0.075201
2624.171875 0.076079
2623.524414 0.078769
2623.358398 0.072497
2622.713867 0.068016
2622.543945 0.085552
2621.903320 0.060846
2621.729492 0.087910
2621.092773 0.077536
2620.916016 0.073638
2620.281250 0.066789
2620.100586 0.079560
2619.469727 0.091820
2619.286133 0.066484
2618.659180 0.070344
2618.471680 0.077152
2617.847656 0.069140
2617.656250 0.078323
2617.036133 0.081047
2616.840820 0.072374
2616.224609 0.078650
2616.025391 0.079475
2615.412109 0.065531
2615.209961 0.065227
2614.600586 0.083389
2614.394531 0.094856
2613.788086 0.078611
2613.578125 0.084166
2612.976563 0.077406
2612.762695 0.061630
2612.164063 0.086919
2611.946289 0.087685
2611.351563 0.065476
2611.129883 0.060419
2610.539063 0.080938
2610.312500 0.082910
2609.726563 0.083305
2609.496094 0.078156
2608.913086 0.083290
2608.678711 0.062748
2608.100586 0.077328
2607.862305 0.062734
2607.287109 0.064231
2607.044922 0.069822
2606.473633 0.070166
2606.227539 0.084005
2605.660156 0.082045
2605.409180 0.059145
2604.846680 0.080842
2604.591797 0.089882
2604.033203 0.071319
2603.773438 0.080403
2603.218750 0.076061
2602.955078 0.065018
2602.405273 0.083178
2602.136719 0.072096
2601.590820 0.086727
2601.318359 0.076807
2600.776367 0.080773
2600.500000 0.086241
2599.961914 0.079572
2599.680664 0.072049
2599.147461 0.083121
2598.861328 0.081481
2598.333008 0.072421
2598.042969 0.086186
2597.518555 0.079531
2597.222656 0.073183
2596.703125 0.073584
2596.403320 0.080248
2595.888672 0.077131
2595.583984 0.074331
2595.073242 0.085423
2594.763672 0.081393
2594.257813 0.074732
2593.943359 0.080196
2593.442383 0.090137
2593.123047 0.067209
2592.625977 0.087750
2592.302734 0.081340
2591.810547 0.074694
2591.482422 0.084859
2590.994141 0.066383
2590.661133 0.083662
2590.178711 0.078223
2589.839844 0.077754
2589.362305 0.075840
2589.018555 0.083626
2588.545898 0.080566
2588.197266 0.091851
2587.729492 0.082921
2587.375977 0.072994
2586.913086 0.072248
2586.554688 0.075332
2586.095703 0.084077
2585.732422 0.089438
2585.279297 0.080511
2584.910156 0.084712
2584.461914 0.085232
2584.087891 0.090575
2583.644531 0.074565
2583.265625 0.076443
2582.827148 0.066268
2582.443359 0.090536
2582.009766 0.080455
2581.620117 0.083463
2581.192383 0.074526
2580.796875 0.076393
2580.374023 0.080427
2579.973633 0.081077
2579.556641 0.078048
2579.150391 0.095157
2578.738281 0.089858
2578.327148 0.078693
2577.919922 0.075656
2577.503906 0.084547
2577.101563 0.066188
2576.679688 0.076310
2576.283203 0.066176
2575.855469 0.080989
2575.464844 0.055531
2575.031250 0.090359
2574.645508 0.096867
2574.207031 0.089166
2573.827148 0.072047
2573.381836 0.082109
2573.007813 0.080301
2572.557617 0.094991
2572.188477 0.075564
2571.732422 0.086763
2571.369141 0.081453
2570.907227 0.078539
2570.549805 0.097963
2570.082031 0.075006
2569.730469 0.074344
2569.256836 0.073818
2568.910156 0.080231
2568.430664 0.091373
2568.090820 0.083756
2567.605469 0.086668
2567.270508 0.090818
2566.779297 0.077282
2566.450195 0.097877
2565.953125 0.070241
2565.629883 0.081354
2565.125977 0.086612
2564.809570 0.082518
2564.299805 0.079572
2563.989258 0.073075
2563.472656 0.088913
2563.167969 0.076597
2562.646484 0.072519
2562.346680 0.086009
2561.819336 0.087705
2561.526367 0.073036
2560.992188 0.080671
2560.705078 0.076556
2560.164063 0.092342
2559.883789 0.087141
2559.336914 0.077130
2559.061523 0.084771
2558.508789 0.081786
2558.240234 0.083579
2557.680664 0.091113
2557.417969 0.084741
2556.852539 0.100436
2556.596680 0.087080
2556.024414 0.081732
2555.774414 0.091770
2555.195313 0.091053
2554.952148 0.083520
2554.367188 0.092200
2554.129883 0.071744
2553.538086 0.081678
2553.307617 0.081138
2552.708984 0.081660
2552.484375 0.075245
2551.878906 0.086308
2551.662109 0.083461
2551.049805 0.095617
2550.838867 0.084621
2550.219727 0.080441
2550.015625 0.084606
2549.390625 0.090913
2549.192383 0.076367
2548.560547 0.079240
2548.369141 0.078703
2547.730469 0.085048
2547.544922 0.081038
2546.899414 0.081534
2546.721680 0.082197
2546.069336 0.087339
2545.897461 0.076312
2545.238281 0.097798
2545.074219 0.093906
2544.407227 0.098940
2544.250000 0.077459
2543.576172 0.077971
2543.425781 0.100913
2542.745117 0.091916
2542.600586 0.075085
2541.913086 0.086079
2541.776367 0.089147
2541.082031 0.081408
2540.951172 0.085613
2540.250000 0.086041
2540.126953 0.091460
2539.417969 0.091834
2539.301758 0.082065
2538.585938 0.088327
2538.476563 0.096116
2537.752930 0.096441
2537.651367 0.083208
2536.920898 0.069701
2536.826172 0.083193
2536.087891 0.104528
2536.000000 0.104265
2535.254883 0.082443
2535.174805 0.092533
2534.421875 0.089390
2534.348633 0.093688
2533.587891 0.096334
2533.522461 0.085475
2532.754883 0.104435
2532.696289 0.086630
2531.920898 0.096291
2531.870117 0.095978
2531.086914 0.085831
2531.042969 0.093620
2530.252930 0.083492
2530.216797 0.087753
2529.418945 0.089270
2529.389648 0.087738
2528.583984 0.098523
2528.562500 0.086552
2527.749023 0.086913
2527.735352 0.078351
2526.914063 0.081100
2526.908203 0.104059
2526.081055 0.076449
2526.079102 0.094688
2525.253906 0.100751
2525.244141 0.100515
2524.425781 0.089150
2524.409180 0.102834
2523.597656 0.092603
2523.573242 0.108657
2522.769531 0.079434
2522.737305 0.093740
2521.941406 0.102778
2521.901367 0.083305
2521.113281 0.087579
2521.065430 0.079816
2520.285156 0.101573
2520.228516 0.079799
2519.456055 0.100387
2519.392578 0.092499
2518.627930 0.088698
2518.555664 0.092478
2517.798828 0.089849
2517.718750 0.087835
2516.969727 0.101499
2516.881836 0.097059
2516.140625 0.079318
2516.043945 0.109744
2515.311523 0.097964
2515.207031 0.098170
2514.481445 0.088618
2514.369141 0.079673
2513.651367 0.093265
2513.531250 0.102743
2512.822266 0.087420
2512.693359 0.111953
2511.992188 0.101388
2511.855469 0.083081
2511.162109 0.111856
2511.016602 0.086523
2510.332031 0.083877
2510.177734 0.086503
2509.500977 0.089685
2509.338867 0.074953
2508.670898 0.110631
2508.500000 0.100298
2507.839844 0.095474
2507.661133 0.096818
2507.008789 0.094293
2506.821289 0.102558
2506.177734 0.104750
2505.982422 0.101382
2505.346680 0.103568
2505.142578 0.101359
2504.515625 0.102385
2504.302734 0.111700
2503.683594 0.101203
2503.461914 0.108221
2502.852539 0.098858
2502.622070 0.111650
2502.020508 0.109306
2501.781250 0.098966
2501.188477 0.097659
2500.940430 0.104696
2500.356445 0.113915
2500.099609 0.090869
2499.524414 0.111570
2499.258789 0.111548
2498.691406 0.099930
2498.416992 0.101175
2497.859375 0.094102
2497.576172 0.100003
2497.026367 0.098731
2496.734375 0.112621
2496.193359 0.097552
2495.892578 0.108000
2495.360352 0.110306
2495.050781 0.105678
2494.527344 0.104481
2494.208008 0.088427
2493.694336 0.090534
2493.365234 0.093000
2492.860352 0.097480
2492.523438 0.092978
2492.027344 0.099782
2491.680664 0.087219
2491.193359 0.107884
2490.836914 0.102115
2490.359375 0.097426
2489.994141 0.113562
2489.525391 0.099727
2489.150391 0.099774
2488.691406 0.102027
2488.306641 0.108924
2487.856445 0.104327
2487.462891 0.093997
2487.022461 0.119374
2486.619141 0.105436
2486.187500 0.118193
2485.775391 0.107703
2485.352539 0.105427
2484.930664 0.107678
2484.517578 0.111199
2484.085938 0.108799
2483.682617 0.108863
2483.241211 0.117934
2482.846680 0.113474
2482.396484 0.117907
2482.011719 0.090299
2481.550781 0.127035
2481.175781 0.107644
2480.706055 0.101834
2480.339844 0.118040
2479.860352 0.098378
2479.503906 0.107604
2479.014648 0.113223
2478.667969 0.119153
2478.168945 0.117771
2477.832031 0.104095
2477.322266 0.105169
2476.995117 0.105232
2476.476563 0.113145
2476.158203 0.102900
2475.629883 0.122260
2475.322266 0.109816
2474.783203 0.095957
2474.485352 0.117886
2473.936523 0.111924
2473.647461 0.123642
2473.088867 0.087920
2472.810547 0.113221
2472.242188 0.110731
2471.973633 0.107424
2471.394531 0.095868
2471.135742 0.108559
2470.546875 0.108397
2470.297852 0.108539
2469.698242 0.117498
2469.459961 0.095819
2468.850586 0.106066
2468.622070 0.111961
2468.001953 0.100340
2467.784180 0.126942
2467.153320 0.111716
2466.946289 0.118842
2466.304688 0.105992
2466.107422 0.110744
2465.456055 0.102549
2465.268555 0.099190
2464.607422 0.102525
2464.429688 0.110703
2463.757813 0.093390
2463.590820 0.101458
2462.908203 0.110448
2462.751953 0.115272
2462.058594 0.117252
2461.913086 0.112945
2461.208984 0.094463
2461.073242 0.091031
2460.358398 0.117197
2460.233398 0.103686
2459.508789 0.119445
2459.394531 0.118641
2458.658203 0.116005
2458.554688 0.116315
2457.807617 0.105745
2457.713867 0.103628
2456.956055 0.112540
2456.874023 0.115120
2456.105469 0.112514
2456.033203 0.103589
2455.253906 0.112488
2455.193359 0.109323
2454.402344 0.097694
2454.352539 0.097797
2453.550781 0.094263
2453.511719 0.104681
2452.699219 0.116950
2452.670898 0.103511
2451.846680 0.096489
2451.829102 0.105791
2450.995117 0.116895
2450.988281 0.091975
2450.146484 0.098713
2450.142578 0.103452
2449.304688 0.115706
2449.290039 0.089642
2448.462891 0.103203
2448.436523 0.112605
2447.621094 0.116031
2447.583984 0.096376
2446.779297 0.097631
2446.730469 0.094086
2445.937500 0.101058
2445.876953 0.098597
2445.094727 0.109076
2445.023438 0.103106
2444.251953 0.104463
2444.169922 0.101949
2443.409180 0.098705
2443.315430 0.112117
2442.566406 0.107866
2442.460938 0.100768
2441.723633 0.117024
2441.606445 0.099612
2440.879883 0.089472
2440.751953 0.110905
2440.037109 0.110099
2439.897461 0.096171
2439.193359 0.094025
2439.041992 0.098410
2438.349609 0.096300
2438.186523 0.093863
2437.505859 0.106597
2437.331055 0.090449
2436.662109 0.113453
2436.475586 0.110774
2435.817383 0.114577
2435.619141 0.103967
2434.973633 0.091644
2434.763672 0.094904
2434.128906 0.101935
2433.907227 0.092622
2433.284180 0.106496
2433.050781 0.081307
2432.439453 0.103041
2432.194336 0.097094
2431.593750 0.086996
2431.336914 0.107229
2430.749023 0.099568
2430.479492 0.104946
2429.903320 0.113280
2429.622070 0.090255
2429.058594 0.104106
2428.764648 0.093617
2428.212891 0.100655
2427.907227 0.103743
2427.367188 0.105210
2427.048828 0.100336
2426.520508 0.100617
2426.191406 0.107075
2425.674805 0.091452
2425.333008 0.101415
2424.828125 0.094864
2424.473633 0.084492
2423.982422 0.098274
2423.615234 0.091230
2423.135742 0.099397
2422.755859 0.099090
2422.289063 0.102805
2421.897461 0.091186
2421.441406 0.113064
2421.038086 0.082160
2420.594727 0.097057
2420.177734 0.090017
2419.747070 0.086763
2419.318359 0.094495
2418.900391 0.103868
2418.458008 0.093347
2418.052734 0.093577
2417.597656 0.105693
2417.205078 0.103828
2416.737305 0.097799
2416.356445 0.090119
2415.876953 0.086536
2415.508789 0.094664
2415.015625 0.088763
2414.660156 0.096926
2414.155273 0.105591
2413.812500 0.107169
2413.293945 0.095458
2412.963867 0.099169
2412.115234 0.100289
2411.266602 0.117362
2410.416992 0.113921
2409.568359 0.099093
2408.718750 0.110461
2407.869141 0.097916
2407.019531 0.110419
2406.169922 0.100154
2405.319336 0.122893
2404.469727 0.102391
2403.619141 0.103509
2402.768555 0.100077
2401.917969 0.094373
2401.066406 0.094355
2400.215820 0.093200
2399.364258 0.109091
2398.513672 0.102253
2397.662109 0.099961
2396.810547 0.110163
2395.958008 0.082890
2395.106445 0.101039
2394.253906 0.089669
2393.402344 0.103269
2392.549805 0.097576
2391.697266 0.082810
2390.843750 0.111148
2389.991211 0.100921
2389.137695 0.100902
2388.284180 0.114484
2387.430664 0.101996
2386.577148 0.097444
2385.723633 0.112152
2384.869141 0.084947
2384.015625 0.109843
2383.161133 0.098500
2382.306641 0.096217
2381.452148 0.097330
2380.597656 0.096180
2379.742188 0.106343
2378.886719 0.107453
2378.032227 0.107432
2377.176758 0.107411
2376.320313 0.106260
2375.464844 0.087026
2374.609375 0.090399
2373.752930 0.100549
2372.896484 0.094881
2372.040039 0.103897
2371.183594 0.115168
2370.326172 0.124177
2369.469727 0.108351
2368.612305 0.110587
2367.754883 0.097027
2366.897461 0.104904
2366.040039 0.109394
2365.182617 0.092459
2364.324219 0.105969
2363.465820 0.092423
2362.607422 0.126212
2361.749023 0.103654
2360.890625 0.095748
2360.031250 0.112623
2359.172852 0.105845
2358.313477 0.101321
2357.454102 0.108054
2356.594727 0.104657
2355.735352 0.108012
2354.875000 0.109116
2354.015625 0.102346
2353.155273 0.089957
2352.294922 0.114673
2351.434570 0.110154
2350.573242 0.095523
2349.712891 0.102246
2348.851563 0.098855
2347.990234 0.112313
2347.128906 0.110046
2346.267578 0.127987
2345.406250 0.106635
2344.543945 0.130181
2343.681641 0.092006
2342.819336 0.125642
2341.957031 0.094213
2341.094727 0.115501
2340.232422 0.105387
2339.369141 0.108729
2338.505859 0.121036
2337.642578 0.113168
2336.779297 0.099703
2335.916016 0.108643
2335.051758 0.111981
2334.188477 0.106361
2333.324219 0.099624
2332.459961 0.091770
2331.595703 0.100703
2330.730469 0.106277
2329.866211 0.112967
2329.000977 0.120772
2328.135742 0.128575
2327.270508 0.114018
2326.405273 0.105054
2325.540039 0.115090
2324.673828 0.093841
2323.807617 0.115044
2322.941406 0.129538
2322.075195 0.112765
2321.208984 0.112743
2320.341797 0.112721
2319.475586 0.114930
2318.608398 0.124947
2317.741211 0.114884
2316.874023 0.108170
2316.005859 0.098114
2315.138672 0.131536
2314.270508 0.110335
2313.402344 0.118113
2312.534180 0.095808
2311.666016 0.114724
2310.797852 0.114701
2309.928711 0.123585
2309.059570 0.104637
2308.190430 0.100164
2307.321289 0.112384
2306.452148 0.114587
2305.582031 0.109003
2304.712891 0.125661
2303.842773 0.104512
2302.972656 0.118942
2302.102539 0.114472
2301.231445 0.126672
2300.361328 0.121092
2299.490234 0.112182
2298.619141 0.113270
2297.748047 0.111027
2296.876953 0.114335
2296.004883 0.119861
2295.133789 0.113180
2294.261719 0.129798
2293.389648 0.112025
2292.517578 0.134181
2291.645508 0.134154
2290.772461 0.134128
2289.899414 0.114152
2289.027344 0.108589
2288.153320 0.124076
2287.280273 0.111868
2286.407227 0.125134
2285.533203 0.106287
2284.660156 0.114014
2283.786133 0.119525
2282.911133 0.112862
2282.037109 0.125008
2281.163086 0.113923
2280.288086 0.113900
2279.413086 0.121616
2278.538086 0.112748
2277.663086 0.112726
2276.787109 0.109388
2275.912109 0.118204
2275.036133 0.117076
2274.160156 0.118156
2273.284180 0.128069
2272.408203 0.119212
2271.531250 0.126914
2270.655273 0.112544
2269.778320 0.118037
2268.901367 0.119116
2268.024414 0.116887
2267.146484 0.112453
2266.269531 0.111328
2265.391602 0.127836
2264.513672 0.113487
2263.635742 0.120073
2262.757813 0.133266
2261.878906 0.132138
2261.000000 0.118900
2260.122070 0.126581
2259.243164 0.134258
2258.363281 0.122128
2257.484375 0.127604
2256.604492 0.116580
2255.725586 0.118755
2254.845703 0.119831
2253.965820 0.123104
2253.084961 0.123079
2252.205078 0.125251
2251.324219 0.120832
2250.443359 0.126299
2249.562500 0.117489
2248.681641 0.113074
2247.800781 0.122929
2246.918945 0.128391
2246.037109 0.134947
2245.155273 0.112982
2244.273438 0.119539
2243.391602 0.112936
2242.509766 0.110720
2241.626953 0.127138
2240.744141 0.111771
2239.861328 0.132564
2238.978516 0.125965
2238.094727 0.121559
2237.211914 0.131388
2236.328125 0.126983
2235.444336 0.125862
2234.560547 0.131308
2233.675781 0.105025
2232.791992 0.126879
2231.907227 0.135602
2231.022461 0.125734
2230.137695 0.115870
2229.252930 0.112568
2228.368164 0.112545
2227.482422 0.128909
2226.596680 0.123421
2225.710938 0.137592
2224.825195 0.115728
2223.938477 0.128803
2223.052734 0.141873
2222.166016 0.120022
2221.279297 0.121088
2220.392578 0.119973
2219.505859 0.124310
2218.618164 0.122104
2217.731445 0.129709
2216.843750 0.130772
2215.956055 0.111134
2215.068359 0.124183
2214.179688 0.132870
2213.291016 0.116510
2212.403320 0.132815
2211.514648 0.121904
2210.625977 0.136026
2209.736328 0.119678
2208.847656 0.125092
2207.958008 0.118541
2207.068359 0.123953
2206.178711 0.131538
2205.289063 0.119555
2204.398438 0.121704
2203.507813 0.117333
2202.618164 0.116223
2201.727539 0.117285
2200.835938 0.134632
2199.945313 0.111809
2199.053711 0.125895
2198.162109 0.134549
2197.270508 0.124758
2196.378906 0.133409
2195.487305 0.139888
2194.594727 0.135523
2193.703125 0.122487
2192.810547 0.139802
2191.917969 0.114852
2191.024414 0.125661
2190.131836 0.145130
2189.238281 0.128858
2188.344727 0.119088
2187.451172 0.127722
2186.557617 0.120121
2185.664063 0.123342
2184.769531 0.116826
2183.875000 0.117883
2182.980469 0.140565
2182.085938 0.116753
2181.191406 0.128618
2180.295898 0.131833
2179.400391 0.144771
2178.504883 0.132859
2177.609375 0.114473
2176.713867 0.119847
2175.817383 0.129538
2174.921875 0.130590
2174.025391 0.124089
2173.128906 0.121906
2172.231445 0.141295
2171.334961 0.148814
2170.437500 0.125064
2169.540039 0.113181
2168.642578 0.119624
2167.745117 0.116367
2166.847656 0.126038
2165.949219 0.138936
2165.050781 0.138907
2164.152344 0.143184
2163.253906 0.127009
2162.354492 0.124830
2161.456055 0.126956
2160.556641 0.131232
2159.657227 0.118300
2158.757813 0.139780
2157.858398 0.122550
2156.958008 0.121450
2156.057617 0.123574
2155.157227 0.121399
2154.256836 0.132115
2153.356445 0.144974
2152.456055 0.110587
2151.554688 0.128812
2150.653320 0.138444
2149.751953 0.140561
2148.850586 0.134095
2147.948242 0.123342
2147.045898 0.132967
2146.144531 0.135083
2145.242188 0.129696
2144.338867 0.128597
2143.436523 0.122142
2142.533203 0.130686
2141.629883 0.139226
2140.726563 0.134914
2139.823242 0.135956
2138.919922 0.143420
2138.015625 0.132689
2137.111328 0.139080
2136.207031 0.134772
2135.302734 0.145438
2134.398438 0.152892
2133.493164 0.131481
2132.588867 0.150690
2131.683594 0.130357
2130.778320 0.142081
2129.872070 0.149527
2128.966797 0.162310
2128.060547 0.144126
2127.154297 0.137692
2126.248047 0.148334
2125.341797 0.141902
2124.434570 0.145072
2123.527344 0.145041
2122.620117 0.165270
2121.712891 0.157773
2120.805664 0.148147
2119.897461 0.148116
2118.990234 0.137431
2118.082031 0.145923
2117.173828 0.146957
2116.265625 0.136279
2115.356445 0.139444
2114.447266 0.140479
2113.539063 0.137257
2112.628906 0.149994
2111.719727 0.138263
2110.810547 0.138233
2109.900391 0.119068
2108.990234 0.156244
2108.080078 0.143459
2107.169922 0.144491
2106.258789 0.148709
2105.348633 0.149740
2104.437500 0.149708
2103.526367 0.153923
2102.615234 0.123112
2101.703125 0.157041
2100.791992 0.145338
2099.879883 0.154853
2098.967773 0.165424
2098.055664 0.139945
2097.142578 0.139915
2096.230469 0.133527
2095.317383 0.165284
2094.404297 0.139826
2093.490234 0.145091
2092.577148 0.134472
2091.663086 0.138678
2090.750000 0.139707
2089.835938 0.137561
2088.920898 0.145995
2088.006836 0.139618
2087.091797 0.148048
2086.177734 0.136386
2085.262695 0.159612
2084.346680 0.151124
2083.431641 0.144752
2082.515625 0.163736
2081.600586 0.157364
2080.684570 0.155218
2079.767578 0.153074
2078.851563 0.136154
2077.934570 0.158285
2077.017578 0.156141
2076.100586 0.144505
2075.183594 0.140256
2074.266602 0.141280
2073.348633 0.140196
2072.430664 0.137004
2071.512695 0.160155
2070.594727 0.130625
2069.676758 0.149555
2068.757813 0.135834
2067.838867 0.149491
2066.919922 0.143143
2066.000977 0.139956
2065.082031 0.156759
2064.162109 0.168296
2063.242188 0.144072
2062.322266 0.153504
2061.402344 0.157676
2060.481445 0.152387
2059.561523 0.137644
2058.640625 0.155473
2057.719727 0.154389
2056.798828 0.166956
2055.876953 0.164821
2054.956055 0.136447
2054.034180 0.172096
2053.112305 0.157371
2052.189453 0.142652
2051.267578 0.152059
2050.344727 0.147833
2049.421875 0.140463
2048.499023 0.132049
2047.576172 0.151928
2046.652344 0.156086
2045.729492 0.140342
2044.805664 0.157065
2043.881836 0.150750
2042.957031 0.162231
2042.033203 0.155917
2041.108398 0.155883
2040.183594 0.163171
2039.258789 0.162090
2038.333984 0.165192
2037.408203 0.165156
2036.483398 0.158850
2035.557617 0.148367
2034.630859 0.144156
2033.705078 0.151436
2032.778320 0.161845
2031.852539 0.148238
2030.925781 0.170279
2030.818359 0.178474
2029.999023 0.171324
2029.892578 0.148174
2029.071289 0.144138
2028.965820 0.160661
2028.144531 0.160823
2028.040039 0.164798
2027.216797 0.166016
2027.113281 0.157463
2026.289063 0.150329
2026.186523 0.159513
2025.361328 0.169091
2025.260742 0.148013
2024.432617 0.166975
2024.333008 0.171949
2023.503906 0.160687
2023.406250 0.163577
2022.576172 0.158573
2022.479492 0.152083
2021.647461 0.162718
2021.551758 0.159340
2020.717773 0.156433
2020.624023 0.161388
2019.789063 0.163705
2019.696289 0.143656
2018.859375 0.143869
2018.768555 0.169643
2017.929688 0.160522
2017.840820 0.159201
2017.000000 0.168832
2016.913086 0.167489
2016.070313 0.167761
2015.984375 0.159131
2015.139648 0.152105
2015.055664 0.186133
2014.209961 0.145830
2014.126953 0.154903
2013.279297 0.169758
2013.198242 0.162145
2012.348633 0.154110
2012.269531 0.158992
2011.416992 0.150960
2011.340820 0.188048
2010.486328 0.157180
2010.411133 0.149574
2009.554688 0.166519
2009.482422 0.185889
2008.623047 0.156085
2008.552734 0.154700
2007.691406 0.171664
2007.623047 0.171275
2006.759766 0.170594
2006.692383 0.173313
2005.827148 0.177845
2005.762695 0.163937
2004.894531 0.160137
2004.833008 0.169088
2003.961914 0.173624
2003.902344 0.163865
2003.029297 0.172555
2002.971680 0.163829
2002.096680 0.151739
2002.041016 0.170013
2001.163086 0.166260
2001.110352 0.165830
2000.229492 0.149608
2000.178711 0.178228
1999.295898 0.162048
1999.248047 0.153325
1998.362305 0.154749
1998.316406 0.191614
1997.427734 0.164068
1997.384766 0.177075
1996.494141 0.166116
1996.453125 0.166683
1995.559570 0.176467
1995.521484 0.175962
1994.625000 0.155679
1994.589844 0.172819
1993.689453 0.166029
1993.657227 0.178988
1992.754883 0.167037
1992.724609 0.162399
1991.819336 0.165971
1991.792969 0.158226
1990.883789 0.155570
1990.860352 0.172666
1989.948242 0.186652
1989.926758 0.161258
1989.012695 0.170031
1988.994141 0.169490
1988.076172 0.180367
1988.061523 0.168419
1987.139648 0.169971
1987.127930 0.170448
1986.203125 0.165796
1986.194336 0.156984
1985.266602 0.181308
1985.260742 0.178633
1984.330078 0.146057
1984.327148 0.179626
1983.392578 0.165709
1983.392578 0.172362
1982.458984 0.172928
1982.455078 0.168196
1981.524414 0.176004
1981.517578 0.168159
1980.589844 0.165621
1980.580078 0.170184
1979.655273 0.170767
1979.641602 0.179427
1978.720703 0.169702
1978.703125 0.162892
1977.786133 0.167603
1977.765625 0.172133
1976.850586 0.214121
1976.826172 0.157667
1975.915039 0.161338
1975.887695 0.184420
1974.979492 0.176820
1974.948242 0.172018
1974.043945 0.177822
1974.009766 0.165801
1973.108398 0.182959
1973.070313 0.180178
1972.172852 0.172592
1972.130859 0.168815
1971.236328 0.172561
1971.190430 0.171865
1970.299805 0.188027
1970.250000 0.187261
1969.363281 0.185928
1969.310547 0.181047
1968.426758 0.181763
1968.370117 0.183064
1967.490234 0.177601
1967.428711 0.187136
1966.553711 0.189958
1966.488281 0.189150
1965.616211 0.187859
1965.546875 0.162386
1964.678711 0.177506
1964.605469 0.158240
1963.741211 0.172315
1963.664063 0.174641
1962.803711 0.169189
1962.722656 0.174602
1961.866211 0.175347
1961.780273 0.186885
1960.928711 0.191816
1960.837891 0.160152
1959.990234 0.195906
1959.895508 0.176538
1959.051758 0.159790
1958.953125 0.177525
1958.113281 0.175222
1958.010742 0.186718
1957.174805 0.179312
1957.067383 0.184625
1956.236328 0.187523
1956.124023 0.180482
1955.296875 0.181308
1955.180664 0.192745
1954.357422 0.194665
1954.237305 0.193726
1953.418945 0.184332
1953.292969 0.170113
1952.479492 0.182239
1952.349609 0.186468
1951.539063 0.190442
1951.405273 0.171061
1950.599609 0.204817
1950.460938 0.190481
1949.660156 0.203751
1949.515625 0.194533
1948.719727 0.180050
1948.571289 0.200631
1947.779297 0.182075
1947.625977 0.190352
1946.838867 0.200555
1946.680664 0.174962
1945.898438 0.188179
1945.735352 0.194358
1944.957031 0.179920
1944.789063 0.210678
1944.016602 0.171663
1943.842773 0.191204
1943.075195 0.203492
1942.896484 0.184005
1942.133789 0.191125
1941.950195 0.179875
1941.192383 0.184926
1941.003906 0.189031
1940.250977 0.191055
1940.056641 0.207376
1939.308594 0.196155
1939.110352 0.193031
1938.366211 0.202280
1938.163086 0.197072
1937.424805 0.180684
1937.215820 0.187840
1936.482422 0.184757
1936.267578 0.189838
1935.539063 0.178566
1935.319336 0.192857
1934.596680 0.182638
1934.372070 0.181591
1933.654297 0.174397
1933.422852 0.192770
1932.710938 0.198982
1932.474609 0.183549
1931.767578 0.187665
1931.526367 0.196760
1930.824219 0.182504
1930.577148 0.198754
1929.880859 0.192722
1929.627930 0.194633
1928.936523 0.196786
1928.678711 0.205796
1927.993164 0.186502
1927.728516 0.198619
1927.048828 0.189542
1926.779297 0.195519
1926.104492 0.186434
1925.829102 0.205656
1925.160156 0.184351
1924.878906 0.180162
1924.215820 0.206845
1923.928711 0.200474
1923.270508 0.185307
1922.977539 0.177028
1922.326172 0.189367
1922.026367 0.176988
1921.380859 0.187286
1921.075195 0.206439
1920.435547 0.195437
1920.124023 0.195209
1919.490234 0.194378
1919.172852 0.206345
1918.543945 0.186159
1918.220703 0.197152
1917.598633 0.193283
1917.268555 0.195075
1916.652344 0.213697
1916.316406 0.192999
1915.706055 0.193212
1915.364258 0.190924
1914.759766 0.180911
1914.411133 0.226417
1913.813477 0.198250
1913.458984 0.195912
1912.866211 0.214560
1912.505859 0.207031
1911.919922 0.199198
1911.552734 0.186691
1910.972656 0.195075
1910.598633 0.194764
1910.025391 0.218526
1909.645508 0.202833
1909.078125 0.206233
1908.691406 0.204814
1908.129883 0.208237
1907.737305 0.187534
1907.182617 0.185745
1906.782227 0.196612
1906.234375 0.202037
1905.828125 0.192515
1905.286133 0.195878
1904.873047 0.218808
1904.337891 0.200941
1903.917969 0.190401
1903.389648 0.199884
1902.962891 0.180232
1902.440430 0.192709
1902.006836 0.192338
1901.492188 0.198790
1901.051758 0.177113
1900.542969 0.200791
1900.095703 0.202368
1899.593750 0.199735
1899.139648 0.200298
1898.644531 0.200716
1898.183594 0.201264
1897.695313 0.221052
1897.226563 0.196162
1896.745117 0.191475
1896.269531 0.191062
1895.794922 0.184311
1895.312500 0.196071
1894.844727 0.200566
1894.355469 0.208151
1893.894531 0.181188
1893.398438 0.205073
1892.944336 0.197438
1892.440430 0.219165
1891.994141 0.189260
1891.482422 0.190842
1891.042969 0.216693
1890.524414 0.195845
1890.091797 0.206481
1889.566406 0.224060
1889.140625 0.207459
1888.607422 0.207863
1888.189453 0.221654
1887.648438 0.203780
1887.238281 0.197215
1886.689453 0.200707
1886.286133 0.194129
1885.730469 0.191586
1885.334961 0.192060
1884.770508 0.221784
1884.382813 0.196087
1883.811523 0.214678
1883.430664 0.206208
1882.851563 0.203544
1882.477539 0.236638
1881.891602 0.202489
1881.525391 0.202069
1880.930664 0.204457
1880.572266 0.189848
1879.970703 0.213472
1879.619141 0.182707
1879.009766 0.207382
1878.666016 0.219206
1878.048828 0.214379
1877.712891 0.211048
1877.086914 0.212317
1876.759766 0.216080
1876.125977 0.206231
1875.805664 0.187640
1875.164063 0.194114
1874.852539 0.196731
1874.202148 0.220213
1873.898438 0.211902
1873.240234 0.212119
1872.943359 0.202738
1872.277344 0.197999
1871.989258 0.206754
1871.315430 0.206996
1871.035156 0.213807
1870.352539 0.216994
1870.080078 0.221872
1869.389648 0.191834
1869.125000 0.198532
1868.425781 0.205847
1868.169922 0.217736
1867.462891 0.207807
1867.214844 0.189344
1866.499023 0.202740
1866.258789 0.208542
1865.535156 0.207710
1865.303711 0.181175
1864.570313 0.206658
1864.347656 0.208463
1863.606445 0.218645
1863.391602 0.212470
1862.641602 0.224610
1862.435547 0.197256
1861.676758 0.213530
1861.479492 0.227559
1860.711914 0.206281
1860.522461 0.199448
1859.746094 0.207253
1859.565430 0.207418
1858.781250 0.217321
1858.608398 0.221394
1857.815430 0.217279
1857.651367 0.199308
1856.849609 0.226331
1856.694336 0.211277
1855.882813 0.217196
1855.736328 0.216232
1854.916992 0.209074
1854.779297 0.204171
1853.950195 0.223172
1853.821289 0.216131
1852.983398 0.188801
1852.863281 0.192071
1852.015625 0.224096
1851.905273 0.205027
1851.048828 0.210932
1850.946289 0.221977
1850.081055 0.225019
1849.988281 0.228922
1849.113281 0.214887
1849.029297 0.218874
1848.145508 0.215854
1848.070313 0.217823
1847.176758 0.208753
1847.111328 0.208781
1846.208008 0.207705
1846.151367 0.194750
1845.239258 0.226818
1845.192383 0.201693
1844.270508 0.213672
1844.232422 0.220612
1843.301758 0.219677
1843.272461 0.224552
1842.332031 0.214597
1842.312500 0.220507
1841.362305 0.207504
1841.352539 0.219457
1840.392578 0.206457
1840.391602 0.218408
1839.430664 0.218500
1839.422852 0.239294
1838.470703 0.203357
1838.452148 0.219301
1837.508789 0.228481
1837.481445 0.225229
1836.547852 0.222399
1836.510742 0.218201
1835.586914 0.217325
1835.540039 0.213168
1834.625000 0.215271
1834.568359 0.199175
1833.663086 0.219253
1833.597656 0.228997
1832.701172 0.237310
1832.625000 0.229938
1831.739258 0.229221
1831.653320 0.224907
1830.777344 0.217115
1830.681641 0.229828
1829.814453 0.223102
1829.708984 0.244693
1828.851563 0.232102
1828.736328 0.219774
1827.888672 0.241098
1827.763672 0.214750
1826.925781 0.224981
1826.790039 0.223644
1825.962891 0.230962
1825.817383 0.220610
1824.999023 0.240957
1824.843750 0.227511
1824.035156 0.227861
1823.869141 0.233416
1823.071289 0.216777
1822.895508 0.238325
1822.107422 0.228776
1821.920898 0.212456
1821.143555 0.225722
1820.947266 0.221338
1820.178711 0.236711
1819.971680 0.227238
1819.214844 0.226636
1818.997070 0.233136
1818.250000 0.239626
1818.021484 0.237048
1817.285156 0.230558
1817.046875 0.220133
1816.319336 0.221493
1816.070313 0.229003
1815.354492 0.238484
1815.094727 0.231921
1814.388672 0.219402
1814.119141 0.228892
1813.422852 0.220361
1813.142578 0.228837
1812.457031 0.207299
1812.166016 0.220859
1811.491211 0.228285
1811.188477 0.236648
1810.525391 0.213224
1810.211914 0.227681
1809.558594 0.219188
1809.234375 0.240492
1808.591797 0.234155
1808.256836 0.243402
1807.625000 0.219102
1807.279297 0.224549
1806.658203 0.221059
1806.300781 0.238340
1805.690430 0.241017
1805.322266 0.228395
1804.723633 0.217973
1804.343750 0.233282
1803.755859 0.247920
1803.365234 0.228284
1802.788086 0.241875
1802.386719 0.233169
1801.820313 0.230835
1801.407227 0.238051
1800.851563 0.220799
1800.427734 0.235030
1799.883789 0.230744
1799.448242 0.231024
1798.915039 0.240686
1798.467773 0.242812
1797.946289 0.256614
1797.488281 0.227951
1796.977539 0.226615
1796.507813 0.220003
1796.007813 0.248529
1795.527344 0.242635
1795.039063 0.238500
1794.545898 0.240603
1794.069336 0.238453
1793.564453 0.223785
1793.099609 0.244391
1792.583008 0.237529
1792.129883 0.230381
1791.601563 0.220720
1791.160156 0.263240
1790.620117 0.224606
1790.189453 0.235274
1789.637695 0.231446
1789.218750 0.246192
1788.655273 0.233358
1788.248047 0.253119
1787.672852 0.227395
1787.277344 0.256058
1786.690430 0.243085
1786.306641 0.256007
1785.707031 0.245977
1785.334961 0.241017
1784.723633 0.212472
1784.364258 0.253914
1783.740234 0.257658
1783.392578 0.264815
1782.756836 0.236947
1782.420898 0.245851
1781.772461 0.239838
1781.448242 0.248788
1780.788086 0.235848
1780.476563 0.239784
1779.803711 0.248562
1779.503906 0.252668
1778.819336 0.245554
1778.531250 0.268531
1777.833984 0.257277
1777.558594 0.250579
1776.848633 0.239543
1776.585938 0.248541
1775.863281 0.256169
1775.612305 0.258431
1774.877930 0.251199
1774.638672 0.259374
1773.891602 0.230536
1773.666016 0.259322
1772.905273 0.259902
1772.691406 0.264237
1771.918945 0.230422
1771.717773 0.279082
1770.931641 0.260160
1770.744141 0.238207
1769.945313 0.242238
1769.769531 0.241088
1768.958008 0.264027
1768.794922 0.261604
1767.970703 0.273898
1767.820313 0.240968
1766.982422 0.249039
1766.845703 0.239929
1765.995117 0.275773
1765.870117 0.239870
1765.006836 0.242989
1764.894531 0.280920
1764.018555 0.276654
1763.919922 0.252472
1763.029297 0.259745
1762.944336 0.262192
1762.041016 0.262667
1761.967773 0.245499
1761.051758 0.247750
1760.992188 0.267928
1760.062500 0.255626
1760.015625 0.254175
1759.072266 0.267463
1759.039063 0.261930
1758.083008 0.270380
1758.062500 0.247208
1757.092773 0.259434
1757.085938 0.259846
1756.108398 0.257402
1756.101563 0.251968
1755.131836 0.254381
1755.111328 0.256787
1754.154297 0.264226
1754.120117 0.266483
1753.176758 0.267141
1753.128906 0.259585
1752.198242 0.250271
1751.220703 0.254177
1750.242188 0.270936
1749.263672 0.262973
1748.285156 0.280711
1747.306641 0.248044
1746.327148 0.271706
1745.348633 0.242017
1744.369141 0.254808
1743.389648 0.267593
1742.409180 0.244833
1741.429688 0.256628
1740.449219 0.269405
1739.468750 0.276257
1738.488281 0.267324
1737.507813 0.256421
1736.526367 0.278062
1735.544922 0.264205
1734.563477 0.269079
1733.582031 0.261142
1732.600586 0.287690
1731.618164 0.274827
1730.636719 0.289544
1729.654297 0.262900
1728.671875 0.253002
1727.688477 0.284447
1726.706055 0.276517
1725.722656 0.256784
1724.739258 0.280340
1723.755859 0.277333
1722.771484 0.282193
1721.788086 0.267390
1720.803711 0.288958
1719.819336 0.272195
1718.834961 0.279017
1717.850586 0.258333
1716.865234 0.273011
1715.879883 0.282774
1714.894531 0.274864
1713.909180 0.283641
1712.923828 0.289471
1711.937500 0.262923
1710.951172 0.303085
1709.964844 0.275565
1708.978516 0.264724
1707.991211 0.268591
1707.004883 0.303818
1706.017578 0.282200
1705.030273 0.287040
1704.042969 0.288941
1703.054688 0.279089
1702.066406 0.280011
1701.078125 0.277018
1700.089844 0.276961
1699.101563 0.291582
1698.113281 0.281739
1697.124023 0.288528
1696.134766 0.301182
1695.145508 0.285477
1694.155273 0.310833
1693.166016 0.282429
1692.175781 0.296050
1691.185547 0.291105
1690.195313 0.293976
1689.205078 0.281221
1688.213867 0.296784
1687.222656 0.284034
1686.231445 0.295686
1685.240234 0.281967
1684.249023 0.287762
1683.256836 0.311109
1682.264648 0.292519
1681.272461 0.294408
1680.280273 0.305069
1679.287109 0.315726
1678.294922 0.287407
1677.301758 0.294167
1676.308594 0.299949
1675.315430 0.305730
1674.321289 0.307614
1673.327148 0.295871
1672.333008 0.294837
1671.338867 0.273374
1670.344727 0.320005
1669.349609 0.301462
1668.355469 0.312095
1667.360352 0.308143
1666.365234 0.322657
1665.369141 0.309959
1664.374023 0.340010
1663.377930 0.315659
1662.381836 0.317536
1661.384766 0.355333
1660.388672 0.301874
1659.391602 0.308605
1658.395508 0.317273
1657.397461 0.312357
1656.400391 0.308413
1655.403320 0.316107
1654.405273 0.321858
1653.407227 0.323730
1652.409180 0.317849
1651.411133 0.329409
1650.412109 0.303187
1649.413086 0.364137
1648.414063 0.314681
1647.415039 0.327200
1646.416016 0.319390
1645.416016 0.324162
1644.416016 0.333769
1643.416016 0.324027
1642.416016 0.317191
1641.415039 0.315191
1640.415039 0.328659
1639.414063 0.308295
1638.413086 0.342049
1637.411133 0.330386
1636.410156 0.342873
1635.408203 0.358252
1634.406250 0.354316
1633.404297 0.364860
1632.402344 0.344518
1631.399414 0.330938
1630.396484 0.365596
1629.393555 0.353947
1628.390625 0.333624
1627.387695 0.349943
1626.383789 0.363364
1625.379883 0.356543
1624.375977 0.350688
1623.372070 0.353504
1622.367188 0.351505
1621.362305 0.360097
1620.357422 0.337881
1619.352539 0.352247
1618.347656 0.352173
1617.341797 0.354024
1616.335938 0.345293
1615.330078 0.350991
1614.324219 0.341303
1613.318359 0.349883
1612.311523 0.350771
1611.304688 0.355501
1610.297852 0.370797
1609.291016 0.339986
1608.283203 0.340875
1607.275391 0.356164
1606.267578 0.364727
1605.259766 0.341620
1604.251953 0.366493
1603.243164 0.358743
1602.234375 0.350036
1601.225586 0.360510
1600.216797 0.343179
1599.207031 0.365150
1598.198242 0.333453
1597.188477 0.348711
1596.178711 0.351511
1595.167969 0.368674
1594.158203 0.355193
1593.147461 0.361819
1592.136719 0.347388
1591.125977 0.333920
1590.114258 0.364460
1589.103516 0.324215
1588.091797 0.339446
1587.080078 0.353714
1586.067383 0.338347
1585.055664 0.343054
1584.042969 0.331517
1583.030273 0.345775
1582.017578 0.360026
1581.003906 0.337991
1579.991211 0.341738
1578.977539 0.364570
1577.963867 0.353998
1576.949219 0.369186
1575.935547 0.345264
1574.920898 0.349959
1573.906250 0.356559
1572.891602 0.342186
1571.876953 0.351643
1570.861328 0.334419
1569.845703 0.354352
1568.830078 0.326659
1567.814453 0.339920
1566.797852 0.328424
1565.782227 0.335017
1564.765625 0.348268
1563.749023 0.341535
1562.731445 0.312928
1561.714844 0.341390
1560.697266 0.344170
1559.679688 0.339344
1558.662109 0.349726
1557.643555 0.330649
1556.625000 0.351477
1555.607422 0.343805
1554.587891 0.344681
1553.569336 0.318976
1552.549805 0.346433
1551.531250 0.325483
1550.511719 0.334901
1549.491211 0.327242
1548.471680 0.331914
1547.451172 0.333739
1546.430664 0.325137
1545.410156 0.328859
1544.389648 0.347739
1543.368164 0.343876
1542.346680 0.338120
1541.325195 0.339942
1540.303711 0.327562
1539.282227 0.318974
1538.259766 0.333100
1537.237305 0.347221
1536.214844 0.334850
1535.191406 0.321539
1534.168945 0.356454
1533.145508 0.352596
1532.122070 0.335509
1531.098633 0.346776
1530.074219 0.363707
1529.050781 0.356073
1528.026367 0.354108
1527.000977 0.343648
1525.976563 0.338855
1524.951172 0.338782
1523.926758 0.350975
1522.901367 0.338637
1521.875000 0.338565
1520.849609 0.319635
1519.823242 0.335592
1518.796875 0.354370
1517.770508 0.336390
1516.743164 0.328782
1515.716797 0.308932
1514.689453 0.329583
1513.662109 0.345517
1512.634766 0.342619
1511.606445 0.334076
1510.578125 0.363171
1509.549805 0.337695
1508.521484 0.334801
1507.493164 0.350713
1506.463867 0.336537
1505.434570 0.355262
1504.405273 0.353306
1503.375977 0.355109
1502.345703 0.366304
1501.315430 0.347444
1500.285156 0.359574
1499.254883 0.366067
1498.223633 0.336897
1497.193359 0.357466
1496.162109 0.349884
1495.130859 0.350747
1494.098633 0.331919
1493.067383 0.358095
1492.035156 0.360829
1491.002930 0.359815
1489.969727 0.350369
1488.937500 0.341864
1487.904297 0.342726
1486.871094 0.359504
1485.837891 0.347258
1484.803711 0.333146
1483.770508 0.344302
1482.736328 0.374160
1481.702148 0.360986
1480.666992 0.355298
1479.632813 0.352417
1478.597656 0.364490
1477.562500 0.354133
1476.527344 0.347517
1475.491211 0.353980
1474.455078 0.347367
1473.418945 0.366897
1472.382813 0.357484
1471.346680 0.345275
1470.309570 0.334937
1469.272461 0.352587
1468.235352 0.348780
1467.198242 0.359893
1466.160156 0.326257
1465.122070 0.356941
1464.083984 0.350341
1463.045898 0.355855
1462.006836 0.334356
1460.968750 0.334283
1459.929688 0.338866
1458.889648 0.342515
1457.850586 0.351746
1456.810547 0.368415
1455.771484 0.343222
1454.730469 0.380344
1453.690430 0.352370
1452.649414 0.377390
1451.609375 0.355933
1450.568359 0.358643
1449.526367 0.382717
1448.485352 0.387277
1447.443359 0.370480
1446.401367 0.375040
1445.359375 0.361965
1444.316406 0.377660
1443.274414 0.355313
1442.231445 0.382133
1441.188477 0.390395
1440.144531 0.394946
1439.101563 0.387444
1438.057617 0.395700
1437.013672 0.386348
1435.968750 0.431652
1434.924805 0.424149
1433.879883 0.463869
1432.834961 0.441551
1431.790039 0.450709
1430.744141 0.450611
1429.698242 0.477339
1428.653320 0.462437
1427.606445 0.478055
1426.560547 0.490893
1425.513672 0.501876
1424.466797 0.514703
1423.419922 0.508123
1422.373047 0.474760
1421.325195 0.474656
1420.277344 0.480091
1419.229492 0.487370
1418.181641 0.494646
1417.132813 0.480697
1416.084961 0.484281
1415.036133 0.475875
1413.986328 0.467472
1412.937500 0.484884
1411.887695 0.477404
1410.837891 0.468085
1409.788086 0.465218
1408.738281 0.456826
1407.687500 0.475142
1406.636719 0.474117
1405.585938 0.474933
1404.534180 0.448142
1403.483398 0.448043
1402.431641 0.456222
1401.379883 0.434051
1400.327148 0.462457
1399.275391 0.439375
1398.222656 0.440197
1397.169922 0.453881
1396.117188 0.440002
1395.063477 0.432558
1394.009766 0.432462
1392.956055 0.445218
1391.902344 0.440531
1390.848633 0.411071
1389.793945 0.441253
1388.739258 0.446659
1387.684570 0.441058
1386.628906 0.473047
1385.574219 0.436280
1384.518555 0.452677
1383.462891 0.437919
1382.406250 0.457056
1381.350586 0.458786
1380.293945 0.436712
1379.237305 0.426546
1378.179688 0.444754
1377.123047 0.442825
1376.065430 0.431750
1375.007813 0.419765
1373.949219 0.432472
1372.891602 0.440603
1371.833008 0.412174
1370.774414 0.426702
1369.715820 0.424780
1368.656250 0.457564
1367.596680 0.455636
1366.537109 0.438189
1365.477539 0.399759
1364.417969 0.413357
1363.357422 0.414177
1362.296875 0.407700
1361.236328 0.409433
1360.174805 0.414811
1359.113281 0.461204
1358.052734 0.451077
1356.990234 0.424555
1355.928711 0.415352
1354.866211 0.415259
1353.803711 0.447942
1352.741211 0.433278
1351.678711 0.418620
1350.615234 0.431264
1349.551758 0.421162
1348.488281 0.422886
1347.424805 0.426429
1346.360352 0.421788
1345.295898 0.411696
1344.231445 0.408878
1343.166992 0.428772
1342.101563 0.419593
1341.036133 0.411327
1339.970703 0.432114
1338.905273 0.421126
1337.838867 0.415587
1336.772461 0.397350
1335.706055 0.412679
1334.639648 0.454298
1333.572266 0.440597
1332.504883 0.433247
1331.437500 0.446742
1330.370117 0.433958
1329.302734 0.451070
1328.234375 0.447346
1327.166016 0.433665
1326.096680 0.485161
1325.028320 0.422610
1323.958984 0.454181
1322.889648 0.414278
1321.820313 0.435889
1320.750000 0.450257
1319.679688 0.428461
1318.609375 0.446438
1317.539063 0.426460
1316.468750 0.418234
1315.397461 0.436201
1314.326172 0.422559
1313.254883 0.422463
1312.182617 0.415148
1311.142578 0.433099
1311.110352 0.436530
1310.069336 0.406841
1310.038086 0.400454
1308.997070 0.424786
1308.965820 0.415712
1307.923828 0.429198
1307.892578 0.430965
1306.851563 0.402057
1306.820313 0.394830
1305.778320 0.420892
1305.747070 0.425403
1304.704102 0.406380
1304.672852 0.428931
1303.630859 0.422503
1303.599609 0.410835
1302.557617 0.411599
1302.525391 0.427877
1301.483398 0.423211
1301.451172 0.420595
1300.409180 0.438419
1300.376953 0.423221
1299.334961 0.426619
1299.301758 0.422244
1298.259766 0.419323
1298.227539 0.414967
1297.185547 0.410231
1297.152344 0.413092
1296.110352 0.417517
1296.076172 0.441618
1295.035156 0.393151
1295.000977 0.408246
1293.959961 0.433557
1293.924805 0.422538
1292.883789 0.397505
1292.848633 0.419745
1291.808594 0.452282
1291.772461 0.419649
1290.732422 0.434220
1290.695313 0.434826
1289.656250 0.437737
1289.618164 0.411374
1288.580078 0.443050
1288.541016 0.432832
1287.502930 0.437578
1287.463867 0.450689
1286.426758 0.414141
1286.386719 0.444303
1285.349609 0.436521
1285.308594 0.428946
1284.272461 0.435543
1284.230469 0.420773
1283.195313 0.427383
1283.152344 0.421574
1282.118164 0.395886
1282.073242 0.397265
1281.040039 0.403891
1280.994141 0.424071
1279.961914 0.414586
1279.915039 0.412321
1278.883789 0.403744
1278.835938 0.389823
1277.805664 0.397391
1277.755859 0.410341
1276.727539 0.410771
1276.676758 0.403081
1275.648438 0.407109
1275.596680 0.375227
1274.569336 0.416896
1274.515625 0.388571
1273.490234 0.394410
1273.435547 0.378636
1272.411133 0.393441
1272.354492 0.388393
1271.332031 0.405018
1271.273438 0.387409
1270.251953 0.387025
1270.191406 0.396265
1269.171875 0.399494
1269.110352 0.375605
1268.091797 0.375241
1268.028320 0.365684
1267.011719 0.378753
1266.946289 0.387947
1265.931641 0.378683
1265.864258 0.364622
1264.850586 0.398305
1264.781250 0.395810
1263.769531 0.375858
1263.698242 0.366241
1262.688477 0.375789
1262.615234 0.389376
1261.607422 0.383771
1261.532227 0.369644
1260.526367 0.372072
1260.448242 0.363310
1259.444336 0.383628
1259.364258 0.369473
1258.362305 0.355841
1258.280273 0.379203
1257.280273 0.380804
1257.196289 0.372871
1256.198242 0.388777
1256.111328 0.356732
1255.115234 0.360110
1255.026367 0.349517
1254.033203 0.350216
1253.941406 0.366373
1252.950195 0.356403
1252.856445 0.372527
1251.867188 0.375092
1251.770508 0.357294
1250.783203 0.371450
1250.684570 0.360774
1249.700195 0.362453
1249.598633 0.384737
1248.616211 0.358815
1248.511719 0.341019
1247.532227 0.375704
1247.425781 0.350732
1246.448242 0.373849
1246.338867 0.376460
1245.364258 0.385376
1245.250977 0.363916
1244.279297 0.357655
1244.164063 0.368280
1243.195313 0.369180
1243.076172 0.355743
1242.110352 0.380702
1241.988281 0.348547
1241.024414 0.376173
1240.900391 0.365357
1239.939453 0.355604
1239.812500 0.345720
1238.853516 0.360884
1238.723633 0.355413
1237.768555 0.365270
1237.634766 0.358884
1236.682617 0.355403
1236.544922 0.357024
1235.595703 0.359789
1235.456055 0.357829
1234.509766 0.372187
1234.366211 0.362184
1233.422852 0.371227
1233.276367 0.352338
1232.336914 0.365816
1232.186523 0.374438
1231.250000 0.357738
1231.095703 0.360158
1230.162109 0.352332
1230.004883 0.359187
1229.075195 0.348707
1228.914063 0.343143
1227.987305 0.384217
1227.823242 0.368770
1226.899414 0.357467
1226.731445 0.361594
1225.811523 0.351176
1225.639648 0.342903
1224.723633 0.362665
1224.547852 0.382686
1223.634766 0.342156
1223.456055 0.333001
1222.546875 0.342979
1222.363281 0.328496
1221.458008 0.339361
1221.270508 0.343468
1220.368164 0.332190
1220.177734 0.346928
1219.279297 0.338343
1219.084961 0.344192
1218.189453 0.364027
1217.991211 0.361804
1217.100586 0.348867
1216.897461 0.359950
1216.010742 0.363888
1215.803711 0.368708
1214.919922 0.370030
1214.708984 0.351826
1213.830078 0.358426
1213.614258 0.372954
1212.739258 0.375211
1212.519531 0.349894
1211.648438 0.375140
1211.424805 0.364829
1210.557617 0.391915
1210.329102 0.377991
1209.466797 0.397159
1209.234375 0.352296
1208.375977 0.362515
1208.138672 0.373399
1207.284180 0.366877
1207.041992 0.368016
1206.192383 0.373894
1205.946289 0.365283
1205.100586 0.370279
1204.849609 0.387250
1204.007813 0.367551
1203.752930 0.381867
1202.916016 0.371908
1202.655273 0.358853
1201.823242 0.364754
1201.558594 0.359650
1200.730469 0.382387
1200.460938 0.356922
1199.637695 0.362843
1199.362305 0.371816
1198.543945 0.354810
1198.264648 0.370847
1197.451172 0.380396
1197.166016 0.376925
1196.357422 0.374132
1196.067383 0.369792
1195.263672 0.386440
1194.968750 0.369705
1194.168945 0.391670
1193.870117 0.389858
1193.075195 0.372147
1192.770508 0.378328
1191.980469 0.387099
1191.670898 0.409026
1190.885742 0.415300
1190.570313 0.386944
1189.791016 0.397551
1189.470703 0.356080
1188.696289 0.388641
1188.370117 0.369181
1187.600586 0.365605
1187.269531 0.362063
1186.504883 0.367300
1186.167969 0.333862
1185.409180 0.359284
1185.067383 0.360134
1184.313477 0.348623
1183.965820 0.359171
1183.216797 0.354732
1182.864258 0.362598
1182.121094 0.356428
1181.761719 0.321257
1181.024414 0.343127
1180.659180 0.344875
1179.927734 0.343060
1179.556641 0.319350
1178.830078 0.353574
1178.454102 0.314888
1177.733398 0.322651
1177.351563 0.335860
1176.635742 0.336690
1176.248047 0.360327
1175.538086 0.342793
1175.144531 0.340082
1174.440430 0.344488
1174.040039 0.326857
1173.341797 0.331207
1172.936523 0.329407
1172.243164 0.332023
1171.832031 0.331080
1171.145508 0.330197
1170.727539 0.346764
1170.045898 0.342458
1169.622070 0.345805
1168.947266 0.327428
1168.517578 0.339596
1167.848633 0.334403
1167.412109 0.350015
1166.749023 0.335218
1166.306641 0.316688
1165.649414 0.322837
1165.200195 0.332356
1164.549805 0.344761
1164.093750 0.319160
1163.449219 0.313917
1162.987305 0.340065
1162.348633 0.335834
1161.880859 0.331243
1161.249023 0.335768
1160.773438 0.334659
1160.147461 0.338338
1159.666016 0.324096
1159.046875 0.333878
1158.558594 0.344106
1157.946289 0.332055
1157.451172 0.338784
1156.844727 0.358338
1156.342773 0.318625
1155.743164 0.331925
1155.234375 0.336004
1154.641602 0.346784
1154.125977 0.340286
1153.539063 0.365148
1153.017578 0.348927
1152.436523 0.339626
1151.908203 0.347971
1151.334961 0.351843
1150.798828 0.340912
1150.231445 0.357914
1149.689453 0.374826
1149.128906 0.361352
1148.579102 0.357306
1148.026367 0.340235
1147.468750 0.360705
1146.922852 0.353318
1146.358398 0.368458
1145.819336 0.360260
1145.248047 0.357048
1144.715820 0.376840
1144.136719 0.365668
1143.611328 0.345222
1143.025391 0.353394
1142.506836 0.342525
1141.914063 0.361141
1141.403320 0.368733
1140.801758 0.363664
1140.297852 0.370411
1139.689453 0.350529
1139.193359 0.366835
1138.577148 0.373923
1138.088867 0.378142
1137.464844 0.378179
1136.983398 0.369315
1136.351563 0.365919
1135.877930 0.370116
1135.239258 0.362355
1134.771484 0.367418
1134.125000 0.361398
1133.666016 0.372593
1133.011719 0.380419
1132.559570 0.351531
1131.897461 0.355145
1131.453125 0.382061
1130.783203 0.365476
1130.346680 0.366251
1129.668945 0.354105
1129.240234 0.356564
1128.553711 0.354886
1128.132813 0.356493
1127.439453 0.361740
1127.025391 0.337203
1126.324219 0.349510
1125.917969 0.362465
1125.208008 0.347691
1124.810547 0.365012
1124.092773 0.336337
1123.702148 0.324778
1122.976563 0.376988
1122.594727 0.348281
1121.859375 0.365632
1121.486328 0.343847
1120.743164 0.358613
1120.377930 0.355121
1119.625977 0.332546
1119.268555 0.357667
1118.508789 0.353244
1118.159180 0.355851
1117.391602 0.335846
1117.050781 0.345315
1116.273438 0.339225
1115.940430 0.346990
1115.155273 0.340007
1114.831055 0.333845
1114.037109 0.339059
1113.721680 0.347722
1112.918945 0.326870
1112.611328 0.358979
1111.799805 0.348403
1111.500977 0.320576
1110.680664 0.345725
1110.389648 0.316157
1109.561523 0.310212
1109.279297 0.326543
1108.441406 0.323094
1108.167969 0.319512
1107.321289 0.318697
1107.056641 0.316836
1106.201172 0.305667
1105.945313 0.308070
1105.081055 0.322857
1104.833984 0.323669
1103.959961 0.317599
1103.721680 0.294897
1102.838867 0.303716
1102.609375 0.315711
1101.717773 0.317443
1101.497070 0.288691
1100.595703 0.307878
1100.384766 0.292979
1099.473633 0.324184
1099.271484 0.317257
1098.351563 0.303417
1098.158203 0.317193
1097.229492 0.300757
1097.044922 0.324949
1096.106445 0.298098
1095.931641 0.299691
1094.983398 0.309222
1094.818359 0.296156
1093.860352 0.312590
1093.704102 0.293491
1092.737305 0.295294
1092.589844 0.327289
1091.613281 0.317600
1091.475586 0.322015
1090.489258 0.320963
1090.360352 0.315875
1089.364258 0.315722
1089.246094 0.311473
1088.240234 0.303603
1088.130859 0.316614
1087.115234 0.308687
1087.015625 0.309612
1085.989258 0.329242
1085.900391 0.349434
1084.864258 0.324004
1084.784180 0.328558
1083.738281 0.329938
1083.667969 0.316356
1082.612305 0.320407
1082.551758 0.337089
1081.486328 0.341797
1081.435547 0.323158
1080.359375 0.323682
1080.318359 0.339550
1079.232422 0.343344
1079.202148 0.336883
1078.105469 0.347549
1078.084961 0.349802
1076.977539 0.362905
1076.966797 0.347999
1075.849609 0.340514
1075.849609 0.354852
1074.731445 0.334427
1074.721680 0.332281
1073.613281 0.362634
1073.593750 0.341730
1072.495117 0.362543
1072.464844 0.351174
1071.376953 0.347643
1071.335938 0.348743
1070.257813 0.343249
1070.207031 0.362362
1069.138672 0.345772
1069.077148 0.373406
1068.019531 0.349158
1067.948242 0.336495
1066.900391 0.368096
1066.817383 0.356955
1065.781250 0.349879
1065.687500 0.355154
1064.661133 0.342033
1064.556641 0.355065
1063.541016 0.334191
1063.425781 0.324183
1062.419922 0.345346
1062.294922 0.339494
1061.299805 0.343549
1061.163086 0.347103
1060.178711 0.347793
1060.032227 0.335050
1059.057617 0.324425
1058.899414 0.323857
1057.936523 0.331260
1057.767578 0.358802
1056.815430 0.348441
1056.634766 0.327965
1055.693359 0.344920
1055.501953 0.288605
1054.571289 0.335366
1054.369141 0.315849
1053.449219 0.345640
1053.235352 0.331984
1052.327148 0.336089
1052.101563 0.336167
1051.204102 0.313619
1050.967773 0.344612
1050.081055 0.324752
1049.833984 0.344525
1048.958008 0.335020
1048.699219 0.347848
1047.834961 0.316008
1047.564453 0.347760
1046.710938 0.364151
1046.428711 0.340003
1045.586914 0.354608
1045.293945 0.348436
1044.462891 0.334743
1044.158203 0.341534
1043.338867 0.344138
1043.021484 0.330378
1042.213867 0.357829
1041.885742 0.371156
1041.089844 0.361195
1040.749023 0.359998
1039.964844 0.355101
1039.612305 0.363310
1038.838867 0.374799
1038.474609 0.357263
1037.713867 0.357533
1037.337891 0.384386
1036.587891 0.379800
1036.200195 0.368134
1035.461914 0.379721
1035.061523 0.384190
1034.335938 0.384795
1033.923828 0.363698
1033.209961 0.385574
1032.785156 0.377198
1032.083008 0.368323
1031.646484 0.377102
1030.956055 0.357087
1030.506836 0.381251
1029.829102 0.408505
1029.367188 0.390492
1028.701172 0.384396
1028.227539 0.353050
1027.574219 0.365443
1027.087891 0.378414
1026.446289 0.371371
1025.947266 0.391041
1025.318359 0.374723
1024.806641 0.363804
1024.189453 0.378932
1023.666016 0.362863
1023.061523 0.365139
1022.524414 0.358532
1021.932617 0.354779
1021.382813 0.340645
1020.803711 0.352135
1020.241211 0.349877
1019.674805 0.353775
1019.098633 0.344705
1018.544922 0.356270
1017.957031 0.354777
1017.415039 0.362189
1016.813477 0.349607
1016.285156 0.358689
1015.670898 0.360519
1015.155273 0.336362
1014.527344 0.360426
1014.024414 0.336291
1013.383789 0.345108
1012.894531 0.367020
1012.240234 0.343328
1011.763672 0.348125
1011.095703 0.342394
1010.631836 0.354894
1009.951172 0.341460
1009.500977 0.321475
1008.806641 0.357427
1008.369141 0.330811
1007.662109 0.342974
1007.237305 0.348689
1006.516602 0.353020
1006.105469 0.345198
1005.371094 0.346174
1004.972656 0.341708
1004.224609 0.347772
1003.840820 0.338220
1003.079102 0.356965
1002.708008 0.334734
1001.932617 0.318064
1001.575195 0.342347
1000.785156 0.323042
1000.441406 0.339714
999.638672 0.340666
999.307617 0.324282
998.491211 0.328775
998.173828 0.333599
997.342773 0.314362
997.040039 0.315616
996.195313 0.301642
995.906250 0.313844
995.046875 0.325992
994.771484 0.318041
993.898438 0.320012
993.636719 0.330761
992.749023 0.295513
992.501953 0.323873
991.599609 0.321529
991.367188 0.326362
990.450195 0.300408
990.231445 0.327997
989.300781 0.324726
989.095703 0.334742
987.959961 0.318491
986.824219 0.315870
985.687500 0.340489
984.550781 0.314034
983.414063 0.321626
982.277344 0.329214
981.139648 0.318939
980.001953 0.313769
978.864258 0.319654
977.726563 0.331486
976.587891 0.334815
975.449219 0.323699
974.310547 0.330426
973.171875 0.313371
972.032227 0.336230
970.893555 0.338705
969.752930 0.334390
968.613281 0.344501
967.473633 0.356305
966.333008 0.324847
965.192383 0.337498
964.050781 0.341665
962.910156 0.350069
961.768555 0.372028
960.626953 0.335517
959.485352 0.354928
958.342773 0.322671
957.200195 0.345463
956.057617 0.334385
954.915039 0.327543
953.771484 0.336781
952.628906 0.319789
951.485352 0.303650
950.340820 0.319653
949.197266 0.300985
948.052734 0.325434
946.908203 0.327899
945.762695 0.313466
944.618164 0.303262
943.472656 0.320088
942.327148 0.325086
941.181641 0.341057
940.035156 0.309755
938.888672 0.309689
937.742188 0.307935
936.595703 0.311243
935.448242 0.338162
934.301758 0.305208
933.154297 0.331274
932.005859 0.320247
930.858398 0.323549
929.709961 0.349594
928.561523 0.347834
927.413086 0.349444
926.263672 0.335057
925.114258 0.350135
923.964844 0.354268
922.815430 0.346620
921.665039 0.338134
920.514648 0.345630
919.364258 0.355645
918.213867 0.337076
917.062500 0.366417
915.911133 0.355415
914.759766 0.354499
913.608398 0.352743
912.456055 0.361903
911.303711 0.351751
910.151367 0.355033
908.999023 0.362509
907.845703 0.343134
906.692383 0.354803
905.539063 0.347179
904.385742 0.359681
903.231445 0.358765
902.077148 0.375449
900.922852 0.356934
899.768555 0.385339
898.613281 0.365155
897.458008 0.378473
896.302734 0.362486
895.146484 0.391701
893.991211 0.389943
892.834961 0.364760
891.678711 0.393956
890.521484 0.393871
889.364258 0.421376
888.207031 0.432987
887.049805 0.444593
885.892578 0.464549
884.734375 0.448577
883.576172 0.449314
882.417969 0.450052
881.258789 0.455798
880.099609 0.445684
878.940430 0.451428
877.781250 0.435479
876.621094 0.449563
875.461914 0.410273
874.301758 0.394343
873.140625 0.389256
871.980469 0.360838
870.819336 0.346596
869.658203 0.384837
868.496094 0.380590
867.334961 0.352198
866.172852 0.361278
865.010742 0.369522
863.847656 0.375266
862.685547 0.377680
861.522461 0.363458
860.359375 0.351737
859.195313 0.336696
858.031250 0.370701
856.867188 0.342366
855.703125 0.334814
854.539063 0.350523
853.374023 0.345464
852.208984 0.340407
851.043945 0.341162
849.877930 0.353536
848.711914 0.348480
847.545898 0.341768
846.379883 0.350816
845.212891 0.354056
844.046875 0.362268
842.879883 0.365504
841.711914 0.383654
840.544922 0.371972
839.376953 0.390112
838.208008 0.410728
837.040039 0.437131
835.871094 0.453589
834.702148 0.508935
833.533203 0.595695
832.364258 0.704751
831.194336 0.814586
830.024414 0.929334
828.854492 0.946489
827.683594 1.000000
826.513672 0.979124
825.342773 0.897952
824.170898 0.799472
823.000000 0.715073
821.828125 0.648873
820.656250 0.572797
819.483398 0.559468
818.311523 0.502420
817.138672 0.454471
815.965820 0.434579
814.791992 0.446850
813.619141 0.391526
812.445313 0.417810
811.270508 0.393825
810.096680 0.366555
808.921875 0.380475
807.747070 0.372157
806.572266 0.369605
805.396484 0.372816
804.221680 0.338998
803.045898 0.353730
801.869141 0.380793
800.693359 0.360152
799.516602 0.339520
798.339844 0.363280
797.162109 0.355805
795.985352 0.345046
794.807617 0.353183
793.628906 0.374455
792.451172 0.360415
791.272461 0.364440
790.093750 0.359435
788.915039 0.383148
787.735352 0.380603
786.556641 0.369037
785.375977 0.373055
784.196289 0.349200
783.015625 0.354859
781.835938 0.377722
780.654297 0.353883
779.473633 0.361175
778.291992 0.356182
777.110352 0.356921
775.928711 0.349476
774.747070 0.356762
773.564453 0.343594
772.381836 0.345153
771.199219 0.340170
770.015625 0.362985
768.832031 0.336749
767.648438 0.343212
766.464844 0.359475
765.280273 0.345509
764.095703 0.375647
762.911133 0.384544
761.725586 0.395070
760.541016 0.402326
759.355469 0.433241
758.168945 0.448643
756.983398 0.477086
755.796875 0.499809
754.610352 0.475243
753.422852 0.448242
752.236328 0.444068
751.048828 0.422788
749.861328 0.400704
748.672852 0.406314
747.485352 0.405409
746.296875 0.383344
745.107422 0.387326
743.918945 0.372596
742.729492 0.379019
741.540039 0.378121
740.349609 0.351208
739.160156 0.362509
737.969727 0.370554
736.779297 0.371283
735.587891 0.358204
734.397461 0.354063
733.206055 0.363726
732.013672 0.354716
730.822266 0.335160
729.629883 0.352123
728.437500 0.335009
727.244141 0.348721
726.051758 0.346210
724.858398 0.359912
723.665039 0.327414
722.470703 0.331392
721.276367 0.369391
720.082031 0.366068
718.887695 0.353840
717.693359 0.369141
716.498047 0.353681
715.302734 0.373830
714.106445 0.371319
712.911133 0.372853
711.714844 0.363065
710.517578 0.357325
709.321289 0.366943
708.124023 0.374133
706.926758 0.393437
705.729492 0.388502
704.531250 0.374687
703.333008 0.383483
702.134766 0.389854
700.936523 0.405905
699.737305 0.371121
698.538086 0.402495
697.338867 0.398372
696.138672 0.400701
694.938477 0.385295
693.738281 0.407772
692.538086 0.410903
691.336914 0.418865
690.135742 0.413133
688.934570 0.419480
687.732422 0.422605
686.531250 0.410438
685.328125 0.414368
684.125977 0.422318
682.923828 0.425439
681.720703 0.419714
680.516602 0.422835
679.313477 0.439616
678.109375 0.412197
676.905273 0.446646
675.701172 0.442529
674.496094 0.425567
673.291992 0.435906
672.085938 0.433399
670.880859 0.430091
669.674805 0.411542
668.468750 0.431499
667.262695 0.441024
666.055664 0.408054
664.849609 0.411168
663.642578 0.413478
662.434570 0.398162
661.227539 0.398872
660.019531 0.406789
658.810547 0.408298
657.602539 0.395398
656.393555 0.374502
655.184570 0.400018
653.975586 0.401527
652.765625 0.389440
651.555664 0.377359
650.345703 0.406847
649.134766 0.381981
647.924805 0.386687
646.712891 0.379410
645.501953 0.383316
644.291016 0.396801
643.079102 0.383141
641.866211 0.376669
640.654297 0.387753
639.441406 0.384474
638.228516 0.413892
637.015625 0.398649
635.801758 0.387398
634.587891 0.388106
633.374023 0.383237
632.160156 0.382352
630.945313 0.377486
629.730469 0.392528
628.514648 0.387661
627.299805 0.395531
626.083984 0.398623
624.868164 0.381031
623.651367 0.384920
622.435547 0.402324
621.218750 0.387128
620.000977 0.392602
618.784180 0.428267
617.566406 0.428963
616.347656 0.412980
615.129883 0.416061
613.911133 0.388975
612.692383 0.409520
611.473633 0.389590
610.253906 0.371254
609.034180 0.389410
607.814453 0.386149
606.594727 0.390816
605.374023 0.383593
604.153320 0.393013
602.931641 0.373910
601.710938 0.374616
600.489258 0.365027
599.267578 0.372068
598.044922 0.378313
596.822266 0.375061
595.599609 0.363899
594.376953 0.376469
593.153320 0.371638
591.929688 0.366809
590.706055 0.380160
589.481445 0.369010
588.257813 0.373664
587.032227 0.396482
585.807617 0.397969
584.582031 0.365510
583.356445 0.374897
582.130859 0.376388
580.905273 0.373934
579.678711 0.395931
578.452148 0.396628
577.224609 0.388652
575.997070 0.383833
574.769531 0.364832
573.541992 0.392320
572.313477 0.393804
571.084961 0.357491
569.856445 0.371579
568.627930 0.383298
567.398438 0.380061
566.168945 0.370533
564.939453 0.377525
563.708984 0.369574
562.478516 0.387569
561.248047 0.370188
560.016602 0.386603
558.785156 0.392012
557.553711 0.360504
556.322266 0.361990
555.089844 0.390953
553.857422 0.377519
552.625000 0.386847
551.391602 0.383619
550.158203 0.390588
548.924805 0.381087
547.690430 0.385702
546.457031 0.387179
545.222656 0.387088
543.987305 0.349395
542.752930 0.387691
541.517578 0.399345
540.281250 0.367155
539.045898 0.385853
537.809570 0.384198
536.573242 0.388019
535.335938 0.394967
534.099609 0.409731
532.861328 0.363512
531.624023 0.368898
530.385742 0.383658
529.148438 0.368725
527.909180 0.388944
526.670898 0.371675
525.431641 0.377833
524.192383 0.370720
522.952148 0.395602
521.712891 0.389268
520.472656 0.395415
519.231445 0.368032
517.991211 0.379638
516.750000 0.385005
515.508789 0.388031
514.266602 0.381707
513.024414 0.369935
511.782227 0.377634
510.540039 0.379102
509.296875 0.382904
508.053711 0.378145
506.810547 0.406838
505.566406 0.395076
504.322266 0.388763
503.078125 0.398776
501.833008 0.394796
500.587891 0.400919
499.342773 0.433449
498.097656 0.410048
496.851563 0.401411
495.605469 0.414512
494.359375 0.425278
493.112305 0.391815
491.865234 0.425853
490.618164 0.409466
489.370117 0.408594
488.123047 0.471283
486.874023 0.447922
485.625977 0.438519
484.376953 0.448484
483.127930 0.454573
481.878906 0.442077
480.628906 0.472934
479.378906 0.467404
478.128906 0.434799
476.877930 0.480331
475.626953 0.477897
474.375977 0.502523
473.125000 0.503176
471.873047 0.497647
470.621094 0.509889
469.368164 0.524443
468.115234 0.551345
466.862305 0.558161
465.609375 0.585042
464.355469 0.581816
463.102539 0.649565
461.847656 0.676404
460.593750 0.717881
459.338867 0.786320
458.083984 0.808482
456.828125 0.889966
455.572266 0.925959
454.316406 0.926508
453.060547 0.933986
451.803711 0.862941
450.546875 0.825793
449.290039 0.744035
448.032227 0.680010
446.774414 0.663697
445.516602 0.618174
444.257813 0.594965
442.999023 0.551786
441.740234 0.550117
440.481445 0.543071
439.221680 0.554460
437.961914 0.549720
436.701172 0.549588
435.441406 0.573245
434.180664 0.578477
432.918945 0.557628
431.658203 0.574365
430.396484 0.598759
429.133789 0.584052
427.872070 0.599237
426.609375 0.550828
425.346680 0.560652
424.083008 0.583488
422.819336 0.552726
421.555664 0.564838
420.291016 0.527208
419.027344 0.561505
417.762695 0.579724
416.497070 0.591818
415.231445 0.584031
413.965820 0.586946
412.700195 0.585276
411.433594 0.613398
410.166992 0.609431
408.900391 0.620735
407.632813 0.679361
406.365234 0.621961
405.097656 0.643172
403.830078 0.664374
402.561523 0.670313
401.291992 0.693785
400.023438 0.689805
398.753906 0.674396
397.484375 0.732894
396.214844 0.714436
394.944336 0.732537
393.673828 0.760527
392.402344 0.755775
391.130859 0.788310
389.859375 0.779750
388.587891 0.806178
387.315430 0.847041
386.042969 0.805025
384.770508 0.801028
383.497070 0.854019
382.223633 0.849252
380.950195 0.835375
379.676758 0.879207
378.402344 0.844834
377.126953 0.843868
375.852539 0.877802
374.577148 0.869243
373.301758 0.884955
372.025391 0.901417
370.749023 0.895890
369.472656 0.876726
368.196289 0.896208
366.918945 0.882355
365.641602 0.888196
364.363281 0.908417
363.085938 0.891543
361.807617 0.916293
360.528320 0.883540
359.249023 0.915085
357.969727 0.940567
356.690430 0.898005
355.410156 0.924233
354.129883 0.919472
352.849609 0.950969
351.568359 0.907691
350.287109 0.915016
349.005859 0.915545
347.723633 0.907773
346.441406 0.902267
345.159180 0.916374
343.875977 0.894281
342.592773 0.888782
341.309570 0.888562
340.026367 0.856696
338.742188 0.868536
337.457031 0.841209
336.172852 0.826695
334.887695 0.843050
333.602539 0.819512
332.316406 0.798243
331.030273 0.771719
329.744141 0.767015
328.457031 0.762313
327.170898 0.756111
325.882813 0.773205
324.595703 0.769256
323.307617 0.772820
322.019531 0.762866
320.730469 0.749914
319.441406 0.730965
318.152344 0.730783
316.863281 0.765855
315.573242 0.749165
314.283203 0.748228
312.992188 0.756286
311.701172 0.783074
310.410156 0.764897
309.119141 0.759463
307.827148 0.787727
306.535156 0.799507
305.242188 0.804545
303.950195 0.841755
302.656250 0.851268
301.363281 0.851802
300.069336 0.885233
298.775391 0.890243
297.480469 0.920657
296.186523 0.959275
294.891602 0.990404
293.595703 1.046158
292.299805 1.042162
291.003906 1.116534
289.708008 1.200568
288.411133 1.256959
287.114258 1.283490
285.816406 1.416627
284.518555 1.492300
283.220703 1.540362
281.922852 1.639806
280.624023 1.683336
279.325195 1.752907
278.025391 1.864133
276.725586 1.915015
275.425781 2.013493
274.125977 2.078445
272.825195 2.177574
271.523438 2.317546
270.222656 2.396493
268.920898 2.461281
267.619141 2.637477
266.316406 2.754163
265.013672 2.836630
263.710938 2.885647
262.408203 2.996983
261.104492 3.060774
259.799805 3.169782
258.496094 3.346222
257.191406 3.388371
255.886719 3.480903
254.581055 3.576351
253.275391 3.619889
251.969727 3.661181
250.663086 3.769097
249.356445 3.831797
248.049805 3.901866
246.742188 3.920844
245.434570 3.861399
244.126953 3.939539
242.818359 3.911911
241.509766 3.976692
240.201172 3.876648
238.891602 3.815810
237.582031 3.847326
236.271484 3.765111
234.961914 3.754545
233.650391 3.645827
232.339844 3.664808
231.028320 3.616653
229.716797 3.615720
228.405273 3.620685
227.092773 3.522456
225.779297 3.486175
224.466797 3.430759
223.153320 3.324552
221.839844 3.269941
220.525391 3.239649
219.210938 3.160801
217.896484 3.143060
216.581055 3.099583
215.265625 3.026714
213.950195 2.918594
212.633789 2.925185
211.317383 2.792164
210.000977 2.749566
208.683594 2.699646
207.366211 2.671777
206.048828 2.588137
204.730469 2.554440
203.412109 2.532499
202.092773 2.453360
200.773438 2.413857
199.454102 2.358247
198.133789 2.329781
196.814453 2.333568
195.493164 2.363721
194.172852 2.347724
192.851563 2.324414
191.529297 2.359668
190.208008 2.364171
188.885742 2.371597
187.562500 2.434600
186.239258 2.451508
184.916016 2.454518
183.592773 2.517448
182.268555 2.552583
180.944336 2.624217
179.619141 2.706036
178.293945 2.773211
176.968750 2.827214
175.643555 2.886294
174.317383 2.982543
172.990234 2.988318
171.664063 3.053869
170.336914 3.161656
169.008789 3.183407
167.680664 3.277261
166.352539 3.276392
165.024414 3.354882
163.695313 3.426050
162.366211 3.377114
161.036133 3.457695
159.706055 3.421139
158.375977 3.449312
157.044922 3.540710
155.713867 3.597177
154.382813 3.646347
153.050781 3.727449
151.718750 3.792531
150.385742 3.859756
149.053711 4.040884
147.719727 4.137752
146.386719 4.166385
145.052734 4.247938
143.717773 4.264924
142.383789 4.315965
141.048828 4.380019
139.712891 4.428826
138.377930 4.469640
137.041016 4.461924
135.705078 4.494019
134.368164 4.479786
133.031250 4.524155
131.693359 4.525830
130.355469 4.435681
129.017578 4.422920
127.678711 4.384873
126.339844 4.362017
125.000977 4.393340
123.661133 4.264352
122.321289 4.245153
120.980469 4.109057
119.639648 4.166382
118.298828 4.083751
116.957031 3.996838
115.615234 3.988545
114.273438 4.059530
112.930664 4.064191
111.587891 3.986017
110.244141 3.948209
108.900391 3.857149
107.556641 3.805001
106.211914 3.619774
104.867188 3.400840
103.522461 3.164047
102.176758 2.862681
100.831055 2.544948
99.484375 2.189307
98.137695 1.838171
