3198.529297 0.007589
3197.824219 0.008347
3197.119141 0.006828
3196.414063 0.006827
3195.708008 0.004551
3195.001953 0.011375
3194.296875 0.004549
3193.590820 0.006823
3192.884766 0.008338
3192.178711 0.009094
3191.472656 0.006820
3190.765625 0.004546
3190.059570 0.007575
3189.352539 0.009846
3188.646484 0.008330
3187.939453 0.007572
3187.232422 0.009084
3186.525391 0.008326
3185.818359 0.011352
3185.111328 0.011350
3184.404297 0.004539
3183.696289 0.004539
3182.989258 0.008320
3182.281250 0.009074
3181.573242 0.004536
3180.865234 0.006804
3180.157227 0.008314
3179.449219 0.007557
3178.741211 0.009823
3178.033203 0.007555
3177.324219 0.006798
3176.616211 0.009063
3175.907227 0.011327
3175.198242 0.008305
3174.489258 0.011323
3173.780273 0.004529
3173.071289 0.007546
3172.362305 0.004527
3171.652344 0.003772
3170.943359 0.007543
3170.233398 0.008296
3169.523438 0.007540
3168.814453 0.008293
3168.104492 0.007538
3167.394531 0.007537
3166.683594 0.010550
3165.973633 0.004521
3165.263672 0.007533
3164.552734 0.012051
3163.841797 0.011296
3163.130859 0.006776
3162.420898 0.006775
3161.709961 0.004516
3160.998047 0.009031
3160.287109 0.008277
3159.576172 0.010533
3158.864258 0.007522
3158.153320 0.006769
3157.441406 0.009775
3156.729492 0.007518
3156.017578 0.009772
3155.305664 0.008267
3154.593750 0.008266
3153.880859 0.006762
3153.168945 0.010517
3152.456055 0.009764
3151.744141 0.009763
3151.031250 0.013515
3150.318359 0.008258
3149.605469 0.009758
3148.892578 0.011257
3148.178711 0.011255
3147.465820 0.004501
3146.751953 0.007501
3146.039063 0.010500
3145.325195 0.007499
3144.611328 0.004498
3143.897461 0.011244
3143.183594 0.006745
3142.468750 0.008243
3141.754883 0.007492
3141.041016 0.008240
3140.326172 0.004494
3139.611328 0.006740
3138.896484 0.011231
3138.181641 0.008983
3137.466797 0.006736
3136.751953 0.009729
3136.037109 0.007482
3135.321289 0.006733
3134.605469 0.009724
3133.890625 0.004487
3133.174805 0.006730
3132.458984 0.010467
3131.743164 0.008970
3131.027344 0.010463
3130.310547 0.012703
3129.594727 0.008218
3128.877930 0.010458
3128.161133 0.004481
3127.445313 0.011201
3126.728516 0.008213
3126.010742 0.007465
3125.293945 0.007464
3124.577148 0.011193
3123.859375 0.010445
3123.142578 0.009698
3122.424805 0.007459
3121.707031 0.006712
3120.989258 0.004474
3120.271484 0.007455
3119.553711 0.013416
3118.835938 0.009688
3118.117188 0.007451
3117.399414 0.006705
3116.680664 0.008193
3115.961914 0.008192
3115.243164 0.012658
3114.524414 0.006700
3113.805664 0.010421
3113.086914 0.009675
3112.367188 0.008929
3111.648438 0.012647
3110.928711 0.010414
3110.208984 0.007437
3109.489258 0.007436
3108.769531 0.008921
3108.049805 0.009663
3107.329102 0.009661
3106.609375 0.011889
3105.888672 0.011144
3105.168945 0.013371
3104.448242 0.006684
3103.727539 0.007426
3103.006836 0.011879
3102.285156 0.009650
3101.564453 0.009648
3100.843750 0.011131
3100.122070 0.008903
3099.400391 0.006676
3098.678711 0.011867
3097.957031 0.011123
3097.235352 0.008897
3096.513672 0.004448
3095.791992 0.012599
3095.069336 0.011115
3094.346680 0.007409
3093.625000 0.008889
3092.902344 0.012591
3092.179688 0.008886
3091.457031 0.014807
3090.733398 0.013324
3090.010742 0.008881
3089.287109 0.007400
3088.564453 0.011838
3087.840820 0.013315
3087.117188 0.011094
3086.393555 0.012571
3085.669922 0.012569
3084.946289 0.009610
3084.221680 0.011825
3083.498047 0.011084
3082.773438 0.008866
3082.048828 0.010342
3081.324219 0.011817
3080.599609 0.012553
3079.875000 0.013290
3079.149414 0.006644
3078.424805 0.009595
3077.699219 0.010331
3076.974609 0.008853
3076.249023 0.014753
3075.523438 0.013276
3074.797852 0.006637
3074.071289 0.008110
3073.345703 0.016217
3072.619141 0.014740
3071.893555 0.007369
3071.166992 0.010315
3070.440430 0.012523
3069.713867 0.011784
3068.987305 0.008100
3068.259766 0.008835
3067.533203 0.009569
3066.805664 0.011776
3066.079102 0.011773
3065.351563 0.011036
3064.624023 0.012505
3063.896484 0.011032
3063.168945 0.012500
3062.440430 0.013233
3061.712891 0.012496
3060.984375 0.007349
3060.255859 0.013961
3059.527344 0.008816
3058.798828 0.011018
3058.070313 0.009547
3057.341797 0.008811
3056.613281 0.006607
3055.883789 0.011744
3055.154297 0.012476
3054.424805 0.010273
3053.695313 0.011004
3052.965820 0.012469
3052.236328 0.013934
3051.506836 0.007332
3050.776367 0.011730
3050.046875 0.011727
3049.316406 0.014657
3048.585938 0.015387
3047.855469 0.011721
3047.125000 0.008789
3046.393555 0.016843
3045.663086 0.016840
3044.931641 0.015373
3044.201172 0.013174
3043.469727 0.014636
3042.738281 0.010243
3042.006836 0.020483
3041.275391 0.010971
3040.542969 0.015356
3039.811523 0.013160
3039.079102 0.012427
3038.346680 0.013155
3037.614258 0.013153
3036.881836 0.012420
3036.149414 0.009496
3035.416992 0.016067
3034.683594 0.014604
3033.951172 0.016062
3033.217773 0.011679
3032.484375 0.009487
3031.750977 0.013134
3031.017578 0.011673
3030.284180 0.011671
3029.549805 0.011668
3028.816406 0.012395
3028.082031 0.013122
3027.347656 0.013849
3026.613281 0.012389
3025.878906 0.013844
3025.144531 0.016027
3024.410156 0.010197
3023.674805 0.013108
3022.939453 0.014562
3022.205078 0.010919
3021.469727 0.013829
3020.734375 0.016737
3019.999023 0.015279
3019.262695 0.016003
3018.527344 0.015273
3017.791016 0.014543
3017.054688 0.012359
3016.318359 0.013084
3015.582031 0.016715
3014.845703 0.011626
3014.109375 0.020342
3013.373047 0.015980
3012.635742 0.018156
3011.898438 0.018878
3011.161133 0.016697
3010.424805 0.016694
3009.686523 0.016691
3008.949219 0.019590
3008.211914 0.014509
3007.473633 0.017407
3006.736328 0.018854
3005.998047 0.014501
3005.259766 0.015223
3004.521484 0.015945
3003.782227 0.016666
3003.043945 0.020286
3002.305664 0.019558
3001.566406 0.018106
3000.827148 0.025343
3000.087891 0.018099
2999.348633 0.016648
2998.609375 0.018816
2997.870117 0.024601
2997.129883 0.023150
2996.389648 0.024592
2995.650391 0.017356
2994.910156 0.019522
2994.169922 0.019518
2993.429688 0.021683
2992.688477 0.023124
2991.948242 0.018062
2991.207031 0.026005
2990.465820 0.018056
2989.725586 0.023829
2988.983398 0.021659
2988.242188 0.019489
2987.500977 0.023816
2986.759766 0.025976
2986.017578 0.026693
2985.275391 0.025966
2984.533203 0.025962
2983.791016 0.028120
2983.048828 0.025952
2982.306641 0.030992
2981.563477 0.028825
2980.821289 0.029540
2980.078125 0.025933
2979.334961 0.025208
2978.591797 0.036004
2977.848633 0.031678
2977.105469 0.030952
2976.361328 0.030946
2975.618164 0.030940
2974.874023 0.035971
2974.129883 0.033806
2973.385742 0.030923
2972.641602 0.039546
2971.897461 0.033787
2971.152344 0.039531
2970.408203 0.037368
2969.663086 0.042390
2968.917969 0.045974
2968.172852 0.043810
2967.427734 0.039494
2966.682617 0.050255
2965.936523 0.049528
2965.191406 0.058849
2964.445313 0.049510
2963.699219 0.050218
2962.953125 0.052360
2962.207031 0.052350
2961.460938 0.052340
2960.713867 0.055915
2959.967773 0.053038
2959.220703 0.059477
2958.473633 0.066630
2957.726563 0.067334
2956.979492 0.065173
2956.232422 0.058716
2955.484375 0.063001
2954.737305 0.062989
2953.989258 0.075143
2953.241211 0.066543
2952.493164 0.068676
2951.745117 0.066517
2950.997070 0.069365
2950.248047 0.070067
2949.500000 0.070054
2948.750977 0.075044
2948.001953 0.077888
2947.252930 0.077159
2946.503906 0.077858
2945.754883 0.079986
2945.004883 0.084969
2944.255859 0.074245
2943.505859 0.077086
2942.755859 0.072790
2942.005859 0.076343
2941.255859 0.073475
2940.504883 0.074175
2939.754883 0.072021
2939.003906 0.072721
2938.252930 0.078409
2937.502930 0.071980
2936.750977 0.069117
2936.000000 0.077652
2935.249023 0.067666
2934.497070 0.063380
2933.746094 0.062656
2932.994141 0.061932
2932.242188 0.061921
2931.490234 0.070448
2930.738281 0.068300
2929.985352 0.062597
2929.233398 0.064718
2928.480469 0.059018
2927.727539 0.061850
2926.974609 0.066103
2926.221680 0.064669
2925.468750 0.056841
2924.715820 0.060382
2923.961914 0.055399
2923.208008 0.055388
2922.455078 0.056088
2921.701172 0.056077
2920.946289 0.058195
2920.192383 0.056765
2919.438477 0.061011
2918.683594 0.062418
2917.928711 0.065243
2917.173828 0.063103
2916.418945 0.057420
2915.664063 0.063788
2914.909180 0.063067
2914.153320 0.068723
2913.398438 0.070126
2912.642578 0.065864
2911.886719 0.062311
2911.130859 0.062299
2910.375000 0.066534
2909.619141 0.065105
2908.862305 0.067923
2908.105469 0.060129
2907.349609 0.066483
2906.592773 0.060106
2905.835938 0.064336
2905.078125 0.067858
2904.321289 0.068552
2903.563477 0.065006
2902.806641 0.071351
2902.048828 0.068512
2901.291016 0.072030
2900.533203 0.069192
2899.774414 0.072708
2899.016602 0.062813
2898.257813 0.071974
2897.500000 0.067728
2896.741211 0.071947
2895.982422 0.067702
2895.222656 0.071214
2894.463867 0.064856
2893.705078 0.068367
2892.945313 0.071173
2892.185547 0.069045
2891.425781 0.070441
2890.666016 0.069723
2889.906250 0.066189
2889.146484 0.076032
2888.385742 0.071090
2887.625000 0.073188
2886.864258 0.066841
2886.103516 0.073160
2885.342773 0.068222
2884.582031 0.068209
2883.821289 0.066790
2883.059570 0.069588
2882.297852 0.074494
2881.536133 0.068859
2880.774414 0.061118
2880.012695 0.072344
2879.250977 0.073032
2878.488281 0.065997
2877.726563 0.070898
2876.963867 0.064568
2876.201172 0.075081
2875.438477 0.068051
2874.674805 0.068037
2873.912109 0.075037
2873.149414 0.072919
2872.385742 0.069400
2871.622070 0.068686
2870.858398 0.069373
2870.094727 0.071461
2869.330078 0.073549
2868.566406 0.073534
2867.801758 0.070019
2867.038086 0.072806
2866.273438 0.078391
2865.508789 0.070678
2864.743164 0.076262
2863.978516 0.077646
2863.212891 0.068539
2862.448242 0.073420
2861.682617 0.079698
2860.916992 0.073391
2860.151367 0.075474
2859.384766 0.074062
2858.619141 0.074047
2857.852539 0.071239
2857.086914 0.081001
2856.320313 0.073306
2855.553711 0.078177
2854.786133 0.071881
2854.019531 0.079542
2853.251953 0.076736
2852.485352 0.078814
2851.717773 0.077404
2850.950195 0.073903
2850.182617 0.078768
2849.414063 0.075268
2848.646484 0.080130
2847.877930 0.079418
2847.110352 0.071044
2846.341797 0.079387
2845.573242 0.073801
2844.803711 0.073787
2844.035156 0.070989
2843.266602 0.077237
2842.497070 0.075135
2841.727539 0.071642
2840.958008 0.079278
2840.188477 0.076481
2839.418945 0.068820
2838.648438 0.079231
2837.878906 0.075047
2837.108398 0.075726
2836.337891 0.077795
2835.567383 0.068752
2834.795898 0.077071
2834.025391 0.069419
2833.254883 0.076346
2832.483398 0.065922
2831.711914 0.070072
2830.940430 0.065203
2830.168945 0.074206
2829.397461 0.070031
2828.625000 0.073483
2827.852539 0.072776
2827.081055 0.072761
2826.308594 0.070668
2825.536133 0.074811
2824.762695 0.083106
2823.990234 0.064395
2823.216797 0.067151
2822.444336 0.071291
2821.670898 0.067125
2820.897461 0.069879
2820.123047 0.059489
2819.349609 0.067085
2818.576172 0.069146
2817.801758 0.070515
2817.027344 0.067736
2816.252930 0.058048
2815.478516 0.068400
2814.704102 0.065624
2813.928711 0.060776
2813.154297 0.060764
2812.378906 0.056610
2811.603516 0.062121
2810.828125 0.057278
2810.052734 0.066926
2809.276367 0.062084
2808.500977 0.056554
2807.724609 0.062059
2806.948242 0.061357
2806.171875 0.055142
2805.395508 0.064090
2804.619141 0.058565
2803.841797 0.061309
2803.064453 0.057853
2802.288086 0.061973
2801.510742 0.060584
2800.733398 0.053689
2799.955078 0.050925
2799.177734 0.053667
2798.399414 0.059160
2797.621094 0.055021
2796.842773 0.059136
2796.064453 0.055000
2795.286133 0.063237
2794.507813 0.051542
2793.728516 0.054967
2792.950195 0.048086
2792.170898 0.056318
2791.391602 0.048067
2790.611328 0.058356
2789.832031 0.048048
2789.052734 0.058332
2788.272461 0.058321
2787.492188 0.062425
2786.711914 0.052811
2785.931641 0.054857
2785.151367 0.054161
2784.370117 0.053464
2783.588867 0.047286
2782.808594 0.056869
2782.027344 0.055487
2781.246094 0.045203
2780.463867 0.055465
2779.682617 0.051346
2778.900391 0.047914
2778.119141 0.043114
2777.336914 0.047895
2776.554688 0.047885
2775.771484 0.047875
2774.989258 0.051969
2774.206055 0.045122
2773.423828 0.044429
2772.640625 0.047837
2771.857422 0.043728
2771.074219 0.051233
2770.290039 0.044393
2769.506836 0.051213
2768.722656 0.054616
2767.938477 0.046414
2767.154297 0.046405
2766.370117 0.050489
2765.585938 0.045704
2764.800781 0.047059
2764.016602 0.038867
2763.231445 0.047722
2762.446289 0.046349
2761.661133 0.045658
2760.875000 0.044286
2760.089844 0.044959
2759.303711 0.044950
2758.518555 0.044940
2757.732422 0.042208
2756.945313 0.046284
2756.159180 0.046274
2755.373047 0.049667
2754.585938 0.051017
2753.798828 0.046926
2753.012695 0.046237
2752.224609 0.050986
2751.437500 0.047578
2750.650391 0.043491
2749.862305 0.046879
2749.074219 0.043473
2748.287109 0.047539
2747.499023 0.045493
2746.709961 0.042768
2745.921875 0.042759
2745.132813 0.049537
2744.344727 0.043420
2743.555664 0.044768
2742.766602 0.047472
2741.977539 0.045428
2741.187500 0.041352
2740.398438 0.039988
2739.608398 0.045401
2738.818359 0.045391
2738.028320 0.047414
2737.238281 0.047405
2736.448242 0.044010
2735.657227 0.047385
2734.866211 0.041961
2734.075195 0.052103
2733.284180 0.046680
2732.493164 0.043965
2731.702148 0.050042
2730.910156 0.043271
2730.119141 0.047318
2729.327148 0.045281
2728.535156 0.037163
2727.743164 0.045262
2726.950195 0.040525
2726.158203 0.045919
2725.365234 0.035108
2724.572266 0.043200
2723.779297 0.041167
2722.986328 0.039809
2722.193359 0.041150
2721.399414 0.041142
2720.606445 0.047202
2719.812500 0.041125
2719.018555 0.039769
2718.224609 0.037065
2717.430664 0.034362
2716.635742 0.034355
2715.840820 0.045797
2715.046875 0.040401
2714.251953 0.042413
2713.456055 0.042404
2712.661133 0.040376
2711.866211 0.035659
2711.070313 0.043051
2710.274414 0.041024
2709.478516 0.041688
2708.682617 0.041007
2707.886719 0.040999
2707.089844 0.043006
2706.293945 0.036951
2705.497070 0.038287
2704.700195 0.038279
2703.903320 0.033571
2703.105469 0.042291
2702.308594 0.038927
2701.510742 0.038248
2700.712891 0.036898
2699.915039 0.041586
2699.117188 0.037553
2698.319336 0.037546
2697.520508 0.044241
2696.722656 0.040211
2695.923828 0.031492
2695.125000 0.037515
2694.326172 0.040186
2693.526367 0.038839
2692.727539 0.035483
2691.927734 0.034137
2691.127930 0.036138
2690.328125 0.034123
2689.528320 0.039467
2688.728516 0.042803
2687.927734 0.040120
2687.126953 0.036100
2686.326172 0.038766
2685.525391 0.035417
2684.724609 0.036746
2683.923828 0.043418
2683.122070 0.042741
2682.321289 0.038726
2681.519531 0.043391
2680.717773 0.039378
2679.915039 0.034031
2679.113281 0.044698
2678.310547 0.036018
2677.508789 0.040679
2676.706055 0.044004
2675.903320 0.041328
2675.099609 0.046651
2674.296875 0.041311
2673.493164 0.041303
2672.690430 0.038630
2671.886719 0.037290
2671.083008 0.037948
2670.278320 0.039271
2669.474609 0.043256
2668.669922 0.035928
2667.865234 0.039247
2667.060547 0.039239
2666.255859 0.036571
2665.451172 0.035898
2664.646484 0.042537
2663.840820 0.041864
2663.035156 0.038533
2662.229492 0.042511
2661.423828 0.037189
2660.618164 0.039173
2659.811523 0.039165
2659.004883 0.039821
2658.199219 0.036495
2657.391602 0.037150
2656.584961 0.035816
2655.778320 0.041114
2655.033203 0.041195
2654.970703 0.039116
2654.227539 0.035880
2654.164063 0.041759
2653.421875 0.034545
2653.356445 0.032473
2652.616211 0.037861
2652.548828 0.030478
2651.810547 0.043168
2651.740234 0.038421
2651.004883 0.035192
2650.932617 0.041062
2650.198242 0.039834
2650.124023 0.041053
2649.392578 0.033190
2649.316406 0.040383
2648.585938 0.039157
2648.507813 0.038389
2647.779297 0.035170
2647.699219 0.041027
2646.972656 0.039808
2646.889648 0.043004
2646.166016 0.037148
2646.081055 0.037041
2645.359375 0.034489
2645.271484 0.044308
2644.552734 0.037136
2644.461914 0.044960
2643.745117 0.037793
2643.652344 0.034374
2642.938477 0.033809
2642.842773 0.033045
2642.130859 0.036455
2642.033203 0.044271
2641.323242 0.036449
2641.222656 0.037655
2640.515625 0.041082
2640.413086 0.040950
2639.708008 0.042400
2639.602539 0.036979
2638.899414 0.039743
2638.791992 0.034991
2638.091797 0.035763
2637.981445 0.032343
2637.283203 0.037082
2637.169922 0.039595
2636.475586 0.041710
2636.359375 0.038267
2635.666992 0.043689
2635.547852 0.042217
2634.858398 0.040373
2634.736328 0.038251
2634.049805 0.043013
2633.924805 0.036924
2633.241211 0.037051
2633.113281 0.038894
2632.431641 0.037706
2632.300781 0.044159
2631.623047 0.042992
2631.489258 0.042173
2630.813477 0.041001
2630.676758 0.039528
2630.003906 0.037688
2629.864258 0.037544
2629.194336 0.042970
2629.051758 0.046097
2628.384766 0.040319
2628.238281 0.042795
2627.575195 0.038991
2627.425781 0.045419
2626.765625 0.042949
2626.612305 0.042777
2625.955078 0.046245
2625.798828 0.040794
2625.145508 0.044916
2624.985352 0.040785
2624.334961 0.040286
2624.171875 0.044065
2623.524414 0.037638
2623.358398 0.040768
2622.713867 0.045554
2622.543945 0.039445
2621.903320 0.046206
2621.729492 0.042065
2621.092773 0.042899
2620.916016 0.045999
2620.281250 0.044211
2620.100586 0.044018
2619.469727 0.052781
2619.286133 0.043352
2618.659180 0.045516
2618.471680 0.038089
2617.847656 0.041551
2617.656250 0.045303
2617.036133 0.048138
2616.840820 0.045950
2616.224609 0.048790
2616.025391 0.045940
2615.412109 0.043508
2615.209961 0.047899
2614.600586 0.038228
2614.394531 0.049201
2613.788086 0.048106
2613.578125 0.041320
2612.976563 0.046121
2612.762695 0.044590
2612.164063 0.043478
2611.946289 0.043269
2611.351563 0.040178
2611.129883 0.045882
2610.539063 0.048074
2610.312500 0.051114
2609.726563 0.044773
2609.496094 0.039310
2608.913086 0.043449
2608.678711 0.044542
2608.100586 0.044100
2607.862305 0.045842
2607.287109 0.042776
2607.044922 0.045833
2606.473633 0.044743
2606.227539 0.043204
2605.660156 0.044735
2605.409180 0.037959
2604.846680 0.046043
2604.591797 0.043840
2604.033203 0.046035
2603.773438 0.044485
2603.218750 0.042082
2602.955078 0.045784
2602.405273 0.054566
2602.136719 0.042504
2601.590820 0.036152
2601.318359 0.043149
2600.776367 0.043375
2600.500000 0.037911
2599.961914 0.042054
2599.680664 0.038556
2599.147461 0.040076
2598.861328 0.043774
2598.333008 0.042696
2598.042969 0.043765
2597.518555 0.043346
2597.222656 0.050286
2596.703125 0.045965
2596.403320 0.037870
2595.888672 0.045957
2595.583984 0.041778
2595.073242 0.045293
2594.763672 0.042422
2594.257813 0.042660
2593.943359 0.044370
2593.442383 0.041340
2593.123047 0.045666
2592.625977 0.042645
2592.302734 0.042395
2591.810547 0.045918
2591.482422 0.042385
2590.994141 0.042630
2590.661133 0.045636
2590.178711 0.038689
2589.839844 0.033242
2589.362305 0.035404
2589.018555 0.044313
2588.545898 0.041953
2588.197266 0.045606
2587.729492 0.036702
2587.375977 0.037129
2586.913086 0.045870
2586.554688 0.042331
2586.095703 0.048483
2585.732422 0.041019
2585.279297 0.045199
2584.910156 0.041661
2584.461914 0.041917
2584.087891 0.043605
2583.644531 0.039945
2583.265625 0.045547
2582.827148 0.039283
2582.443359 0.039683
2582.009766 0.044513
2581.620117 0.042926
2581.192383 0.040579
2580.796875 0.045518
2580.374023 0.037954
2579.973633 0.042257
2579.556641 0.045145
2579.150391 0.045498
2578.738281 0.041866
2578.327148 0.035741
2577.919922 0.037280
2577.503906 0.041580
2577.101563 0.043813
2576.679688 0.042220
2576.283203 0.044459
2575.855469 0.040912
2575.464844 0.037261
2575.031250 0.043501
2574.645508 0.039869
2574.207031 0.040895
2573.827148 0.037901
2573.381836 0.045429
2573.007813 0.039855
2572.557617 0.042175
2572.188477 0.041154
2571.732422 0.044111
2571.369141 0.045719
2570.907227 0.036319
2570.549805 0.043752
2570.082031 0.045389
2569.730469 0.044397
2569.256836 0.041489
2568.910156 0.041126
2568.430664 0.042777
2568.090820 0.036550
2567.605469 0.040823
2567.270508 0.050247
2566.779297 0.049884
2566.450195 0.037842
2565.953125 0.044044
2565.629883 0.039140
2565.125977 0.039501
2564.809570 0.045655
2564.299805 0.042730
2563.989258 0.042386
2563.472656 0.041426
2563.167969 0.048899
2562.646484 0.037534
2562.346680 0.048890
2561.819336 0.042055
2561.526367 0.045623
2560.992188 0.040105
2560.705078 0.041053
2560.164063 0.039450
2559.883789 0.044304
2559.336914 0.045260
2559.061523 0.042993
2558.508789 0.049129
2558.240234 0.043637
2557.680664 0.042009
2557.417969 0.042978
2556.852539 0.042646
2556.596680 0.044923
2556.024414 0.039406
2555.774414 0.044265
2555.195313 0.043919
2554.952148 0.038399
2554.367188 0.041326
2554.129883 0.043598
2553.538086 0.045190
2553.307617 0.044892
2552.708984 0.045180
2552.484375 0.041631
2551.878906 0.045171
2551.662109 0.044876
2551.049805 0.041290
2550.838867 0.041616
2550.219727 0.039346
2550.015625 0.043559
2549.390625 0.043851
2549.192383 0.042252
2548.560547 0.048354
2548.369141 0.042894
2547.730469 0.039319
2547.544922 0.038988
2546.899414 0.045111
2546.721680 0.049376
2546.069336 0.047678
2545.897461 0.053264
2545.238281 0.038005
2545.074219 0.038967
2544.407227 0.043793
2544.250000 0.045453
2543.576172 0.048290
2543.425781 0.050639
2542.745117 0.045061
2542.600586 0.044139
2541.913086 0.046982
2541.776367 0.042184
2541.082031 0.045041
2540.951172 0.045421
2540.250000 0.044388
2540.126953 0.044115
2539.417969 0.048880
2539.301758 0.042810
2538.585938 0.044368
2538.476563 0.050584
2537.752930 0.045001
2537.651367 0.038904
2536.920898 0.044991
2536.826172 0.044732
2536.087891 0.044981
2536.000000 0.045372
2535.254883 0.050110
2535.174805 0.045364
2534.421875 0.044961
2534.348633 0.040172
2533.587891 0.044951
2533.522461 0.049882
2532.754883 0.044941
2532.696289 0.048578
2531.920898 0.046856
2531.870117 0.045331
2531.086914 0.049413
2531.042969 0.043380
2530.252930 0.041703
2530.216797 0.045315
2529.418945 0.050032
2529.389648 0.044012
2528.583984 0.044891
2528.562500 0.047887
2527.749023 0.042957
2527.735352 0.045290
2526.914063 0.039743
2526.908203 0.047223
2526.081055 0.044861
2526.079102 0.044627
2525.253906 0.043569
2525.244141 0.042032
2524.425781 0.050606
2524.409180 0.052369
2523.597656 0.049954
2523.573242 0.049774
2522.769531 0.043302
2522.737305 0.041619
2521.941406 0.045233
2521.901367 0.041610
2521.113281 0.048455
2521.065430 0.051840
2520.285156 0.045216
2520.228516 0.051189
2519.456055 0.045208
2519.392578 0.051817
2518.627930 0.041971
2518.555664 0.050526
2517.798828 0.053585
2517.718750 0.042842
2516.969727 0.050993
2516.881836 0.049225
2516.140625 0.047757
2516.043945 0.046657
2515.311523 0.050329
2515.207031 0.049842
2514.481445 0.047094
2514.369141 0.053664
2513.651367 0.045151
2513.531250 0.049181
2512.822266 0.050946
2512.693359 0.054278
2511.992188 0.044489
2511.855469 0.049158
2511.162109 0.050928
2511.016602 0.051700
2510.332031 0.050919
2510.177734 0.051051
2509.500977 0.049620
2509.338867 0.047849
2508.670898 0.050900
2508.500000 0.044649
2507.839844 0.054112
2507.661133 0.046552
2507.008789 0.042508
2506.821289 0.046541
2506.177734 0.049584
2505.982422 0.046531
2505.346680 0.056013
2505.142578 0.047795
2504.515625 0.043129
2504.302734 0.049058
2503.683594 0.048270
2503.461914 0.051595
2502.852539 0.048904
2502.622070 0.050310
2502.020508 0.055329
2501.781250 0.047115
2501.188477 0.049530
2500.940430 0.043921
2500.356445 0.043732
2500.099609 0.044548
2499.524414 0.046939
2499.258789 0.048991
2498.691406 0.039216
2498.416992 0.050252
2497.859375 0.048850
2497.576172 0.054693
2497.026367 0.050127
2496.734375 0.040692
2496.193359 0.048832
2495.892578 0.055303
2495.360352 0.052035
2495.050781 0.052113
2494.527344 0.052026
2494.208008 0.047654
2493.694336 0.046879
2493.365234 0.051454
2492.860352 0.052649
2492.523438 0.051442
2492.027344 0.050713
2491.680664 0.049526
2491.193359 0.050062
2490.836914 0.039992
2490.359375 0.051978
2489.994141 0.047599
2489.525391 0.051327
2489.150391 0.050126
2488.691406 0.043620
2488.306641 0.052018
2487.856445 0.059645
2487.462891 0.051372
2487.022461 0.058352
2486.619141 0.052628
2486.187500 0.051289
2485.775391 0.053884
2485.352539 0.055125
2484.930664 0.046266
2484.517578 0.054474
2484.085938 0.051958
2483.682617 0.049979
2483.241211 0.059548
2482.846680 0.058938
2482.396484 0.051301
2482.011719 0.055725
2481.550781 0.058254
2481.175781 0.052512
2480.706055 0.049378
2480.339844 0.051862
2479.860352 0.051265
2479.503906 0.048652
2479.014648 0.053152
2478.667969 0.051203
2478.168945 0.046813
2477.832031 0.052473
2477.322266 0.053760
2476.995117 0.047345
2476.476563 0.051850
2476.158203 0.049895
2475.629883 0.054367
2475.322266 0.051804
2474.783203 0.050562
2474.485352 0.054992
2473.936523 0.052446
2473.647461 0.047310
2473.088867 0.053698
2472.810547 0.051775
2472.242188 0.056843
2471.973633 0.053044
2471.394531 0.047990
2471.135742 0.060702
2470.546875 0.053029
2470.297852 0.054941
2469.698242 0.053648
2469.459961 0.049182
2468.850586 0.054266
2468.622070 0.054281
2468.001953 0.052992
2467.784180 0.046609
2467.153320 0.052349
2466.946289 0.052346
2466.304688 0.050445
2466.107422 0.058719
2465.456055 0.049803
2465.268555 0.052965
2464.607422 0.052943
2464.429688 0.050403
2463.757813 0.050410
2463.590820 0.054220
2462.908203 0.048508
2462.751953 0.051659
2462.058594 0.043458
2461.913086 0.055475
2461.208984 0.052893
2461.073242 0.049727
2460.358398 0.049104
2460.233398 0.056092
2459.508789 0.052868
2459.394531 0.044610
2458.658203 0.056632
2458.554688 0.047151
2457.807617 0.051586
2457.713867 0.051601
2456.956055 0.055347
2456.874023 0.052865
2456.105469 0.044016
2456.033203 0.053492
2455.253906 0.052807
2455.193359 0.049662
2454.402344 0.052166
2454.352539 0.049016
2453.550781 0.048383
2453.511719 0.057917
2452.699219 0.055910
2452.670898 0.040089
2451.846680 0.053385
2451.829102 0.048352
2450.995117 0.050233
2450.988281 0.047071
2450.146484 0.053360
2450.142578 0.051514
2449.304688 0.045816
2449.290039 0.057862
2448.462891 0.050825
2448.436523 0.057216
2447.621094 0.047671
2447.583984 0.056459
2446.779297 0.052746
2446.730469 0.050174
2445.937500 0.050829
2445.876953 0.054551
2445.094727 0.050820
2445.023438 0.046389
2444.251953 0.047635
2444.169922 0.052018
2443.409180 0.048261
2443.315430 0.047620
2442.566406 0.053330
2442.460938 0.043850
2441.723633 0.054590
2441.606445 0.051355
2440.879883 0.052041
2440.751953 0.046960
2440.037109 0.051397
2439.897461 0.050079
2439.193359 0.054559
2439.041992 0.048189
2438.349609 0.048206
2438.186523 0.043798
2437.505859 0.044391
2437.331055 0.038783
2436.662109 0.046285
2436.475586 0.046904
2435.817383 0.046910
2435.619141 0.043767
2434.973633 0.050070
2434.763672 0.054383
2434.128906 0.046892
2433.907227 0.056245
2433.284180 0.044349
2433.050781 0.046235
2432.439453 0.051309
2432.194336 0.043725
2431.593750 0.044332
2431.336914 0.046837
2430.749023 0.050023
2430.479492 0.047450
2429.903320 0.050013
2429.622070 0.046815
2429.058594 0.049371
2428.764648 0.041811
2428.212891 0.050627
2427.907227 0.048664
2427.367188 0.049985
2427.048828 0.050523
2426.520508 0.055036
2426.191406 0.050511
2425.674805 0.044273
2425.333008 0.048005
2424.828125 0.049324
2424.473633 0.053604
2423.982422 0.044256
2423.615234 0.043620
2423.135742 0.048040
2422.755859 0.042987
2422.289063 0.052455
2421.897461 0.047959
2421.441406 0.049918
2421.038086 0.042966
2420.594727 0.048013
2420.177734 0.049181
2419.747070 0.048635
2419.318359 0.049792
2418.900391 0.052415
2418.458008 0.046668
2418.052734 0.049879
2417.597656 0.043547
2417.205078 0.048607
2416.737305 0.048512
2416.356445 0.053016
2415.876953 0.042904
2415.508789 0.052375
2415.015625 0.043515
2414.660156 0.051734
2414.155273 0.047234
2413.812500 0.056770
2413.293945 0.046601
2412.963867 0.047299
2412.115234 0.046660
2411.266602 0.046020
2410.416992 0.054205
2409.568359 0.047263
2408.718750 0.047884
2407.869141 0.046615
2407.019531 0.045976
2406.169922 0.039041
2405.319336 0.047218
2404.469727 0.052873
2403.619141 0.049087
2402.768555 0.048449
2401.917969 0.048439
2401.066406 0.052833
2400.215820 0.048421
2399.364258 0.045896
2398.513672 0.043373
2397.662109 0.043993
2396.810547 0.048383
2395.958008 0.043976
2395.106445 0.052133
2394.253906 0.049611
2393.402344 0.048974
2392.549805 0.048336
2391.697266 0.052093
2390.843750 0.051455
2389.991211 0.047054
2389.137695 0.043908
2388.284180 0.042645
2387.430664 0.047026
2386.577148 0.046390
2385.723633 0.048261
2384.869141 0.049505
2384.015625 0.051375
2383.161133 0.052618
2382.306641 0.048850
2381.452148 0.047588
2380.597656 0.046953
2379.742188 0.043814
2378.886719 0.045683
2378.032227 0.051931
2377.176758 0.046916
2376.320313 0.052536
2375.464844 0.045648
2374.609375 0.050015
2373.752930 0.050630
2372.896484 0.054370
2372.040039 0.045612
2371.183594 0.052475
2370.326172 0.052464
2369.469727 0.046834
2368.612305 0.043703
2367.754883 0.052434
2366.897461 0.051799
2366.040039 0.054285
2365.182617 0.047412
2364.324219 0.054888
2363.465820 0.058618
2362.607422 0.062971
2361.749023 0.049868
2360.890625 0.054845
2360.031250 0.043618
2359.172852 0.056692
2358.313477 0.050452
2357.454102 0.054802
2356.594727 0.048565
2355.735352 0.049178
2354.875000 0.048545
2354.015625 0.051647
2353.155273 0.053503
2352.294922 0.054115
2351.434570 0.050373
2350.573242 0.049120
2349.712891 0.051596
2348.851563 0.054694
2347.990234 0.047848
2347.128906 0.050945
2346.267578 0.050935
2345.406250 0.049062
2344.543945 0.050294
2343.681641 0.048421
2342.819336 0.057101
2341.957031 0.047782
2341.094727 0.046531
2340.232422 0.050864
2339.369141 0.048994
2338.505859 0.055805
2337.642578 0.052694
2336.779297 0.050824
2335.916016 0.043378
2335.051758 0.053902
2334.188477 0.056369
2333.324219 0.050784
2332.459961 0.056347
2331.595703 0.046430
2330.730469 0.048897
2329.866211 0.046412
2329.000977 0.052590
2328.135742 0.052579
2327.270508 0.056280
2326.405273 0.050085
2325.540039 0.056876
2324.673828 0.058100
2323.807617 0.059943
2322.941406 0.058077
2322.075195 0.064243
2321.208984 0.068553
2320.341797 0.062983
2319.475586 0.051858
2318.608398 0.065426
2317.741211 0.049369
2316.874023 0.058614
2316.005859 0.062920
2315.138672 0.058590
2314.270508 0.057345
2313.402344 0.049936
2312.534180 0.055473
2311.666016 0.052997
2310.797852 0.057916
2309.928711 0.054824
2309.059570 0.058509
2308.190430 0.049876
2307.321289 0.052329
2306.452148 0.052934
2305.582031 0.051693
2304.712891 0.054759
2303.842773 0.051672
2302.972656 0.055352
2302.102539 0.048577
2301.231445 0.051641
2300.361328 0.057777
2299.490234 0.055922
2298.619141 0.050996
2297.748047 0.055900
2296.876953 0.050975
2296.004883 0.052193
2295.133789 0.048499
2294.261719 0.055241
2293.389648 0.054616
2292.517578 0.056446
2291.645508 0.059502
2290.772461 0.058263
2289.899414 0.052733
2289.027344 0.053335
2288.153320 0.056389
2287.280273 0.060055
2286.407227 0.061881
2285.533203 0.055743
2284.660156 0.057569
2283.786133 0.054496
2282.911133 0.059382
2282.037109 0.052026
2281.163086 0.063642
2280.288086 0.053228
2279.413086 0.056276
2278.538086 0.064215
2277.663086 0.057476
2276.787109 0.055020
2275.912109 0.064788
2275.036133 0.048275
2274.160156 0.049488
2273.284180 0.057419
2272.408203 0.056186
2271.531250 0.063501
2270.655273 0.059215
2269.778320 0.056151
2268.901367 0.056140
2268.024414 0.059789
2267.146484 0.056727
2266.269531 0.053667
2265.391602 0.062802
2264.513672 0.057303
2263.635742 0.053025
2262.757813 0.059717
2261.878906 0.056659
2261.000000 0.060302
2260.122070 0.065162
2259.243164 0.060277
2258.363281 0.057222
2257.484375 0.057819
2256.604492 0.061458
2255.725586 0.058404
2254.845703 0.059000
2253.965820 0.062029
2253.084961 0.063840
2252.205078 0.054101
2251.324219 0.061383
2250.443359 0.052864
2249.562500 0.061966
2248.681641 0.058916
2247.800781 0.060726
2246.918945 0.064356
2246.037109 0.061915
2245.155273 0.064937
2244.273438 0.059463
2243.391602 0.068551
2242.509766 0.061258
2241.626953 0.064884
2240.744141 0.056990
2239.861328 0.063040
2238.978516 0.060603
2238.094727 0.058167
2237.211914 0.059972
2236.328125 0.060566
2235.444336 0.059948
2234.560547 0.063568
2233.675781 0.060529
2232.791992 0.064752
2231.907227 0.061714
2231.022461 0.051418
2230.137695 0.056246
2229.252930 0.056839
2228.368164 0.059850
2227.482422 0.060442
2226.596680 0.064055
2225.710938 0.064042
2224.825195 0.062821
2223.938477 0.062808
2223.052734 0.063399
2222.166016 0.057350
2221.279297 0.061563
2220.392578 0.060343
2219.505859 0.057314
2218.618164 0.068763
2217.731445 0.060306
2216.843750 0.063308
2215.956055 0.059679
2215.068359 0.064488
2214.179688 0.066282
2213.291016 0.066269
2212.403320 0.063846
2211.514648 0.059015
2210.625977 0.059605
2209.736328 0.068020
2208.847656 0.064395
2207.958008 0.068594
2207.068359 0.058353
2206.178711 0.069769
2205.289063 0.062538
2204.398438 0.053507
2203.507813 0.060108
2202.618164 0.059495
2201.727539 0.059483
2200.835938 0.070283
2199.945313 0.061260
2199.053711 0.063049
2198.162109 0.068439
2197.270508 0.070225
2196.378906 0.067811
2195.487305 0.072596
2194.594727 0.058185
2193.703125 0.059373
2192.810547 0.061159
2191.917969 0.061147
2191.024414 0.051544
2190.131836 0.062919
2189.238281 0.062906
2188.344727 0.067685
2187.451172 0.064078
2186.557617 0.059275
2185.664063 0.061657
2184.769531 0.059849
2183.875000 0.070008
2182.980469 0.062815
2182.085938 0.063998
2181.191406 0.068171
2180.295898 0.060385
2179.400391 0.062165
2178.504883 0.064543
2177.609375 0.068114
2176.713867 0.066906
2175.817383 0.060322
2174.921875 0.062698
2174.025391 0.054924
2173.128906 0.062075
2172.231445 0.066239
2171.334961 0.063243
2170.437500 0.057264
2169.540039 0.067987
2168.642578 0.069762
2167.745117 0.067363
2166.847656 0.062581
2165.949219 0.061376
2165.050781 0.062555
2164.152344 0.059564
2163.253906 0.059551
2162.354492 0.067279
2161.456055 0.063098
2160.556641 0.058919
2159.657227 0.067237
2158.757813 0.054135
2157.858398 0.064830
2156.958008 0.071357
2156.057617 0.073126
2155.157227 0.063601
2154.256836 0.071907
2153.356445 0.059415
2152.456055 0.070095
2151.554688 0.070080
2150.653320 0.065909
2149.751953 0.072426
2148.850586 0.068849
2147.948242 0.063494
2147.045898 0.071787
2146.144531 0.070586
2145.242188 0.062268
2144.338867 0.061070
2143.436523 0.072913
2142.533203 0.069934
2141.629883 0.068142
2140.726563 0.059834
2139.823242 0.064559
2138.919922 0.069875
2138.015625 0.071637
2137.111328 0.072806
2136.207031 0.060363
2135.302734 0.078100
2134.398438 0.066253
2133.493164 0.070970
2132.588867 0.069182
2131.683594 0.072714
2130.778320 0.069152
2129.872070 0.068547
2128.966797 0.070305
2128.060547 0.067337
2127.154297 0.078543
2126.248047 0.081479
2125.341797 0.082642
2124.434570 0.074953
2123.527344 0.073757
2122.620117 0.081410
2121.712891 0.079034
2120.805664 0.071941
2119.897461 0.076053
2118.990234 0.070732
2118.082031 0.071896
2117.173828 0.077772
2116.265625 0.074810
2115.356445 0.084807
2114.447266 0.067124
2113.539063 0.078295
2112.628906 0.071216
2111.719727 0.075320
2110.810547 0.076481
2109.900391 0.069406
2108.990234 0.070568
2108.080078 0.070553
2107.169922 0.067599
2106.258789 0.072286
2105.348633 0.069333
2104.437500 0.074018
2103.526367 0.071065
2102.615234 0.072225
2101.703125 0.078667
2100.791992 0.072194
2099.879883 0.067484
2098.967773 0.071577
2098.055664 0.073908
2097.142578 0.077997
2096.230469 0.070359
2095.317383 0.072102
2094.404297 0.073845
2093.490234 0.067970
2092.577148 0.073814
2091.663086 0.072627
2090.750000 0.075539
2089.835938 0.068498
2088.920898 0.076092
2088.006836 0.070809
2087.091797 0.076645
2086.177734 0.077214
2085.262695 0.072519
2084.346680 0.070164
2083.431641 0.064888
2082.515625 0.080655
2081.600586 0.074794
2080.684570 0.076531
2079.767578 0.074178
2078.851563 0.080002
2077.934570 0.078233
2077.017578 0.083470
2076.100586 0.069446
2075.183594 0.073515
2074.266602 0.074666
2073.348633 0.076400
2072.430664 0.076967
2071.512695 0.084529
2070.594727 0.081014
2069.676758 0.076917
2068.757813 0.080396
2067.838867 0.074554
2066.919922 0.075703
2066.000977 0.087331
2065.082031 0.076253
2064.162109 0.082638
2063.242188 0.086693
2062.322266 0.070968
2061.402344 0.074443
2060.481445 0.079660
2059.561523 0.085456
2058.640625 0.071489
2057.719727 0.077284
2056.798828 0.077848
2055.876953 0.071442
2054.956055 0.074331
2054.034180 0.072573
2053.112305 0.076620
2052.189453 0.076024
2051.267578 0.084130
2050.344727 0.074251
2049.421875 0.072495
2048.499023 0.081756
2047.576172 0.084058
2046.652344 0.079403
2045.729492 0.072432
2044.805664 0.079948
2043.881836 0.081089
2042.957031 0.076439
2042.033203 0.080475
2041.108398 0.085088
2040.183594 0.083912
2039.258789 0.080423
2038.333984 0.077513
2037.408203 0.086171
2036.483398 0.088465
2035.557617 0.071682
2034.630859 0.084959
2033.705078 0.086096
2032.778320 0.079723
2031.852539 0.077395
2030.925781 0.073981
2030.818359 0.092392
2029.999023 0.079761
2029.892578 0.086022
2029.071289 0.075702
2028.965820 0.081385
2028.144531 0.081468
2028.040039 0.083099
2027.216797 0.074521
2027.113281 0.084235
2026.289063 0.082018
2026.186523 0.086524
2025.361328 0.082004
2025.260742 0.079008
2024.432617 0.072174
2024.333008 0.081297
2023.503906 0.079667
2023.406250 0.078973
2022.576172 0.071572
2022.479492 0.084719
2021.647461 0.073291
2021.551758 0.084125
2020.717773 0.091166
2020.624023 0.082954
2019.789063 0.080189
2019.696289 0.084664
2018.859375 0.080752
2018.768555 0.084646
2017.929688 0.079008
2017.840820 0.081173
2017.000000 0.077265
2016.913086 0.080004
2016.070313 0.082440
2015.984375 0.082288
2015.139648 0.077239
2015.055664 0.086298
2014.209961 0.082989
2014.126953 0.088004
2013.279297 0.077212
2013.198242 0.091436
2012.348633 0.076623
2012.269531 0.087391
2011.416992 0.088706
2011.340820 0.086797
2010.486328 0.081204
2010.411133 0.091376
2009.554688 0.076583
2009.482422 0.080439
2008.623047 0.081752
2008.552734 0.083294
2007.691406 0.084040
2007.623047 0.083850
2006.759766 0.077119
2006.692383 0.088425
2005.827148 0.092067
2005.762695 0.084387
2004.894531 0.081120
2004.833008 0.090682
2003.961914 0.083407
2003.902344 0.089514
2003.029297 0.082817
2002.971680 0.090642
2002.096680 0.079353
2002.041016 0.087754
2001.163086 0.082213
2001.110352 0.089455
2000.229492 0.086798
2000.178711 0.081983
1999.295898 0.085058
1999.248047 0.088843
1998.362305 0.087342
1998.316406 0.090542
1997.427734 0.084454
1997.384766 0.085366
1996.494141 0.080993
1996.453125 0.091075
1995.559570 0.079256
1995.521484 0.081893
1994.625000 0.076945
1994.589844 0.082447
1993.689453 0.083821
1993.657227 0.084719
1992.754883 0.080363
1992.724609 0.090423
1991.819336 0.091827
1991.792969 0.086398
1990.883789 0.086646
1990.860352 0.084663
1989.948242 0.085484
1989.926758 0.080069
1989.012695 0.086616
1988.994141 0.092059
1988.076172 0.091763
1988.061523 0.094897
1987.139648 0.088879
1987.127930 0.085159
1986.203125 0.081411
1986.194336 0.086855
1985.266602 0.094007
1985.260742 0.085693
1984.330078 0.093417
1984.327148 0.097097
1983.392578 0.079076
1983.392578 0.087368
1982.458984 0.083645
1982.455078 0.079356
1981.524414 0.096232
1981.517578 0.090754
1980.589844 0.082470
1980.580078 0.095299
1979.655273 0.089899
1979.641602 0.089003
1978.720703 0.087021
1978.703125 0.089553
1977.786133 0.088723
1977.765625 0.095236
1976.850586 0.085846
1976.826172 0.092934
1975.915039 0.086403
1975.887695 0.091204
1974.979492 0.088676
1974.948242 0.098592
1974.043945 0.087516
1974.009766 0.096861
1973.108398 0.082353
1973.070313 0.091143
1972.172852 0.081767
1972.130859 0.089984
1971.236328 0.086898
1971.190430 0.093949
1970.299805 0.085739
1970.250000 0.092221
1969.363281 0.088581
1969.310547 0.089355
1968.426758 0.091422
1968.370117 0.101284
1967.490234 0.090263
1967.428711 0.088746
1966.553711 0.087963
1966.488281 0.089864
1965.616211 0.083378
1965.546875 0.093824
1964.678711 0.098780
1964.605469 0.094940
1963.741211 0.093624
1963.664063 0.094351
1962.803711 0.095320
1962.722656 0.094329
1961.866211 0.091308
1961.780273 0.089195
1960.928711 0.089009
1960.837891 0.097695
1959.990234 0.101544
1959.895508 0.098241
1959.051758 0.092400
1958.953125 0.088000
1958.113281 0.099226
1958.010742 0.095359
1957.174805 0.094647
1957.067383 0.097608
1956.236328 0.095770
1956.124023 0.099288
1955.296875 0.095753
1955.180664 0.108342
1954.357422 0.098585
1954.237305 0.099244
1953.418945 0.091730
1953.292969 0.086748
1952.479492 0.099689
1952.349609 0.092397
1951.539063 0.102518
1951.405273 0.096910
1950.599609 0.093389
1950.460938 0.098588
1949.660156 0.099635
1949.515625 0.100832
1948.719727 0.099616
1948.571289 0.085518
1947.779297 0.096753
1947.625977 0.097956
1946.838867 0.095028
1946.680664 0.096801
1945.898438 0.092166
1945.735352 0.099610
1944.957031 0.089874
1944.789063 0.091100
1944.016602 0.101232
1943.842773 0.094473
1943.075195 0.098371
1942.896484 0.104067
1942.133789 0.100059
1941.950195 0.092734
1941.192383 0.093219
1941.003906 0.096106
1940.250977 0.090929
1940.056641 0.111344
1939.308594 0.100572
1939.110352 0.096627
1938.366211 0.101690
1938.163086 0.096041
1937.424805 0.098263
1937.215820 0.097713
1936.482422 0.099381
1936.267578 0.098256
1935.539063 0.089711
1935.319336 0.100492
1934.596680 0.097074
1934.372070 0.103856
1933.654297 0.098759
1933.422852 0.103268
1932.710938 0.096471
1932.474609 0.110579
1931.767578 0.095886
1931.526367 0.105478
1930.824219 0.090196
1930.577148 0.103762
1929.880859 0.109463
1929.627930 0.102047
1928.936523 0.109443
1928.678711 0.103151
1927.993164 0.103753
1927.728516 0.097492
1927.048828 0.099766
1926.779297 0.107048
1926.104492 0.100315
1925.829102 0.106461
1925.160156 0.096896
1924.878906 0.095737
1924.215820 0.105943
1923.928711 0.105849
1923.270508 0.109322
1922.977539 0.108077
1922.326172 0.101373
1922.026367 0.105801
1921.380859 0.101355
1921.075195 0.101839
1920.435547 0.109262
1920.124023 0.101253
1919.490234 0.103581
1919.172852 0.106292
1918.543945 0.109221
1918.220703 0.101769
1917.598633 0.102412
1917.268555 0.098935
1916.652344 0.097867
1916.316406 0.098351
1915.706055 0.093890
1915.364258 0.101700
1914.759766 0.099527
1914.411133 0.106170
1913.813477 0.097813
1913.458984 0.109516
1912.866211 0.094968
1912.505859 0.096015
1911.919922 0.096646
1911.552734 0.110589
1910.972656 0.099453
1910.598633 0.107757
1910.025391 0.101130
1909.645508 0.102683
1909.078125 0.103935
1908.691406 0.106025
1908.129883 0.096009
1907.737305 0.102075
1907.182617 0.097685
1906.782227 0.098126
1906.234375 0.104442
1905.828125 0.104831
1905.286133 0.106680
1904.873047 0.101444
1904.337891 0.098195
1903.917969 0.110947
1903.389648 0.100998
1902.962891 0.104759
1902.440430 0.094210
1902.006836 0.100814
1901.492188 0.101524
1901.051758 0.100791
1900.542969 0.108836
1900.095703 0.099648
1899.593750 0.094721
1899.139648 0.104103
1898.644531 0.095830
1898.183594 0.106317
1897.695313 0.097503
1897.226563 0.095664
1896.745117 0.103683
1896.269531 0.107387
1895.794922 0.104791
1895.312500 0.095060
1894.844727 0.099138
1894.355469 0.101747
1893.894531 0.101372
1893.398438 0.103400
1892.944336 0.096849
1892.440430 0.105612
1891.994141 0.099645
1891.482422 0.096649
1891.042969 0.099627
1890.524414 0.106680
1890.091797 0.099045
1889.566406 0.103305
1889.140625 0.096776
1888.607422 0.101048
1888.189453 0.104071
1887.648438 0.100466
1887.238281 0.107426
1886.689453 0.114952
1886.286133 0.104032
1885.730469 0.106557
1885.334961 0.106261
1884.770508 0.107648
1884.382813 0.107365
1883.811523 0.109853
1883.430664 0.103973
1882.851563 0.101465
1882.477539 0.106201
1881.891602 0.113704
1881.525391 0.106181
1880.930664 0.108662
1880.572266 0.107284
1879.970703 0.101395
1879.619141 0.098840
1879.009766 0.110283
1878.666016 0.105559
1878.048828 0.099677
1877.712891 0.112837
1877.086914 0.104107
1876.759766 0.096539
1876.125977 0.100744
1875.805664 0.106621
1875.164063 0.110180
1874.852539 0.114456
1874.202148 0.109042
1873.898438 0.111069
1873.240234 0.107348
1872.943359 0.100391
1872.277344 0.107879
1871.989258 0.101494
1871.315430 0.103406
1871.035156 0.109884
1870.352539 0.110052
1870.080078 0.107060
1869.389648 0.101691
1869.125000 0.103117
1868.425781 0.106111
1868.169922 0.099736
1867.462891 0.115529
1867.214844 0.099156
1866.499023 0.112170
1866.258789 0.110900
1865.535156 0.103816
1865.303711 0.104159
1864.570313 0.109897
1864.347656 0.099660
1863.606445 0.111536
1863.391602 0.106358
1862.641602 0.105408
1862.435547 0.098502
1861.676758 0.103719
1861.479492 0.108556
1860.711914 0.117003
1860.522461 0.118605
1859.746094 0.103480
1859.565430 0.106997
1858.781250 0.099545
1858.608398 0.119165
1857.815430 0.107913
1857.651367 0.113596
1856.849609 0.103980
1856.694336 0.114123
1855.882813 0.106754
1855.736328 0.115758
1854.916992 0.106175
1854.779297 0.116285
1853.950195 0.106155
1853.821289 0.109614
1852.983398 0.115630
1852.863281 0.109588
1852.015625 0.112816
1851.905273 0.113436
1851.048828 0.107769
1850.946289 0.118941
1850.081055 0.106073
1849.988281 0.116148
1849.113281 0.113867
1849.029297 0.111697
1848.145508 0.112171
1848.070313 0.110565
1847.176758 0.109917
1847.111328 0.118276
1846.208008 0.113801
1846.151367 0.101119
1845.239258 0.116568
1845.192383 0.117115
1844.270508 0.108739
1844.232422 0.119297
1843.301758 0.115966
1843.272461 0.118716
1842.332031 0.104795
1842.312500 0.117584
1841.362305 0.119265
1841.352539 0.115349
1840.392578 0.110326
1840.391602 0.114769
1839.430664 0.112533
1839.422852 0.124120
1838.470703 0.113626
1838.452148 0.111406
1837.508789 0.114717
1837.481445 0.129575
1836.547852 0.128058
1836.510742 0.116865
1835.586914 0.128590
1835.540039 0.118491
1834.625000 0.122999
1834.568359 0.126177
1833.663086 0.115185
1833.597656 0.130002
1832.701172 0.121283
1832.625000 0.123363
1831.739258 0.124040
1831.653320 0.120030
1830.777344 0.124572
1830.681641 0.132662
1829.814453 0.126216
1829.708984 0.133180
1828.851563 0.125636
1828.736328 0.124345
1827.888672 0.121165
1827.763672 0.130917
1826.925781 0.120586
1826.790039 0.131985
1825.962891 0.121118
1825.817383 0.117659
1824.999023 0.123316
1824.843750 0.135770
1824.035156 0.123292
1823.869141 0.134638
1823.071289 0.120492
1822.895508 0.131859
1822.107422 0.123244
1821.920898 0.132926
1821.143555 0.130991
1820.947266 0.127402
1820.178711 0.128190
1819.971680 0.130117
1819.214844 0.124837
1818.997070 0.130634
1818.250000 0.117046
1818.021484 0.121274
1817.285156 0.114250
1817.046875 0.128926
1816.319336 0.122545
1816.070313 0.132734
1815.354492 0.116977
1815.094727 0.129960
1814.388672 0.134138
1814.119141 0.117868
1813.422852 0.129124
1813.142578 0.118936
1812.457031 0.117463
1812.166016 0.122195
1811.491211 0.120210
1811.188477 0.113948
1810.525391 0.131263
1810.211914 0.116111
1809.558594 0.124593
1809.234375 0.119916
1808.591797 0.127336
1808.256836 0.123172
1807.625000 0.127311
1807.279297 0.114932
1806.658203 0.121199
1806.300781 0.125301
1805.690430 0.116749
1805.322266 0.114330
1804.723633 0.123364
1804.343750 0.124146
1803.755859 0.122787
1803.365234 0.112087
1802.788086 0.119445
1802.386719 0.121353
1801.820313 0.124397
1801.407227 0.121870
1800.851563 0.127136
1800.427734 0.124572
1799.883789 0.123796
1799.448242 0.120172
1798.915039 0.118798
1798.467773 0.121781
1797.946289 0.122089
1797.488281 0.121751
1796.977539 0.122065
1796.507813 0.126634
1796.007813 0.119832
1795.527344 0.123329
1795.039063 0.121465
1794.545898 0.118389
1794.069336 0.127513
1793.564453 0.122723
1793.099609 0.132455
1792.583008 0.122693
1792.129883 0.118083
1791.601563 0.126479
1791.160156 0.128541
1790.620117 0.134079
1790.189453 0.136238
1789.637695 0.122058
1789.218750 0.132351
1788.655273 0.123663
1788.248047 0.130670
1787.672852 0.126900
1787.277344 0.123478
1786.690430 0.132314
1786.306641 0.131170
1785.707031 0.131737
1785.334961 0.130042
1784.723633 0.132793
1784.364258 0.126160
1783.740234 0.121335
1783.392578 0.134397
1782.756836 0.130552
1782.420898 0.127211
1781.772461 0.134871
1781.448242 0.132692
1780.788086 0.134838
1780.476563 0.132665
1779.803711 0.139696
1779.503906 0.124934
1778.819336 0.129880
1778.531250 0.135914
1777.833984 0.135281
1777.558594 0.126535
1776.848633 0.136334
1776.585938 0.135860
1775.863281 0.137387
1775.612305 0.135833
1774.877930 0.142239
1774.638672 0.139655
1773.891602 0.129177
1773.666016 0.144025
1772.905273 0.141626
1772.691406 0.137401
1771.918945 0.129656
1771.717773 0.146166
1770.931641 0.136797
1770.744141 0.144267
1769.945313 0.130178
1769.769531 0.142063
1768.958008 0.143882
1768.794922 0.142027
1767.970703 0.156481
1767.820313 0.137657
1766.982422 0.137237
1766.845703 0.136539
1765.995117 0.138307
1765.870117 0.133796
1765.006836 0.133890
1764.894531 0.150010
1764.018555 0.142092
1763.919922 0.155386
1763.029297 0.143710
1762.944336 0.152641
1762.041016 0.151907
1761.967773 0.154227
1761.051758 0.145845
1760.992188 0.148778
1760.062500 0.147461
1760.015625 0.141710
1759.072266 0.157845
1759.039063 0.147622
1758.083008 0.149594
1758.062500 0.141639
1757.092773 0.152851
1757.085938 0.141603
1756.108398 0.146795
1756.101563 0.149673
1755.131836 0.159361
1755.111328 0.139912
1754.154297 0.154949
1754.120117 0.143657
1753.176758 0.144517
1753.128906 0.142001
1752.198242 0.151056
1751.220703 0.148290
1750.242188 0.148807
1749.263672 0.145495
1748.285156 0.151481
1747.306641 0.147077
1746.327148 0.148141
1745.348633 0.153576
1744.369141 0.149720
1743.389648 0.136032
1742.409180 0.148022
1741.429688 0.144715
1740.449219 0.159974
1739.468750 0.152845
1738.488281 0.140807
1737.507813 0.142416
1736.526367 0.132568
1735.544922 0.165812
1734.563477 0.131423
1733.582031 0.159748
1732.600586 0.149904
1731.618164 0.153144
1730.636719 0.146029
1729.654297 0.146544
1728.671875 0.146515
1727.688477 0.144307
1726.706055 0.148633
1725.722656 0.147515
1724.739258 0.144219
1723.755859 0.145823
1722.771484 0.150145
1721.788086 0.137061
1720.803711 0.148453
1719.819336 0.145704
1718.834961 0.142413
1717.850586 0.150536
1716.865234 0.149419
1715.879883 0.154821
1714.894531 0.145557
1713.909180 0.153129
1712.923828 0.153098
1711.937500 0.163923
1710.951172 0.151408
1709.964844 0.150292
1708.978516 0.148634
1707.991211 0.148604
1707.004883 0.149116
1706.017578 0.153422
1705.030273 0.156643
1704.042969 0.158779
1703.054688 0.147910
1702.066406 0.168464
1701.078125 0.152183
1700.089844 0.161357
1699.101563 0.159158
1698.113281 0.164538
1697.124023 0.153141
1696.134766 0.157438
1695.145508 0.166060
1694.155273 0.154669
1693.166016 0.155719
1692.175781 0.162174
1691.185547 0.171329
1690.195313 0.154002
1689.205078 0.159373
1688.213867 0.154479
1687.222656 0.147967
1686.231445 0.149017
1685.240234 0.143588
1684.249023 0.152194
1683.256836 0.162955
1682.264648 0.142961
1681.272461 0.155337
1680.280273 0.153148
1679.287109 0.154194
1678.294922 0.151468
1677.301758 0.144431
1676.308594 0.159488
1675.315430 0.154068
1674.321289 0.140033
1673.327148 0.156697
1672.333008 0.148051
1671.338867 0.148020
1670.344727 0.156062
1669.349609 0.154954
1668.355469 0.140936
1667.360352 0.151125
1666.365234 0.153782
1665.369141 0.153213
1664.374023 0.153719
1663.377930 0.146164
1662.381836 0.160640
1661.384766 0.148252
1660.388672 0.159500
1659.391602 0.159467
1658.395508 0.148161
1657.397461 0.161547
1656.400391 0.157758
1655.403320 0.164700
1654.405273 0.165738
1653.407227 0.161950
1652.409180 0.159772
1651.411133 0.155451
1650.412109 0.158634
1649.413086 0.162888
1648.414063 0.161783
1647.415039 0.162820
1646.416016 0.166535
1645.416016 0.169712
1644.416016 0.172889
1643.416016 0.166431
1642.416016 0.179238
1641.415039 0.172246
1640.415039 0.161514
1639.414063 0.175918
1638.413086 0.172139
1637.411133 0.181724
1636.410156 0.157105
1635.408203 0.169360
1634.406250 0.174132
1633.404297 0.172494
1632.402344 0.178331
1631.399414 0.164415
1630.396484 0.173454
1629.393555 0.164880
1628.390625 0.166446
1627.387695 0.171745
1626.383789 0.175442
1625.379883 0.172207
1624.375977 0.175369
1623.372070 0.181195
1622.367188 0.183821
1621.362305 0.170465
1620.357422 0.181614
1619.352539 0.176251
1618.347656 0.179408
1617.341797 0.168726
1616.335938 0.169755
1615.330078 0.182488
1614.324219 0.181386
1613.318359 0.195707
1612.311523 0.188754
1611.304688 0.186588
1610.297852 0.182297
1609.291016 0.187573
1608.283203 0.189659
1607.275391 0.181121
1606.267578 0.193827
1605.259766 0.198034
1604.251953 0.203301
1603.243164 0.219179
1602.234375 0.206399
1601.225586 0.211130
1600.216797 0.213207
1599.207031 0.215814
1598.198242 0.202515
1597.188477 0.203532
1596.178711 0.211968
1595.167969 0.201857
1594.158203 0.192280
1593.147461 0.209187
1592.136719 0.191140
1591.125977 0.193218
1590.114258 0.202174
1589.103516 0.192607
1588.091797 0.196799
1587.080078 0.205220
1586.067383 0.201475
1585.055664 0.184515
1584.042969 0.201390
1583.030273 0.197120
1582.017578 0.209759
1581.003906 0.191226
1579.991211 0.194883
1578.977539 0.184281
1577.963867 0.196384
1576.949219 0.190009
1575.935547 0.183109
1574.920898 0.207867
1573.906250 0.196218
1572.891602 0.200923
1571.876953 0.186645
1570.861328 0.191877
1569.845703 0.191309
1568.830078 0.191796
1567.814453 0.199130
1566.797852 0.193295
1565.782227 0.191674
1564.765625 0.190054
1563.749023 0.191066
1562.731445 0.201551
1561.714844 0.189407
1560.697266 0.184633
1559.679688 0.181964
1558.662109 0.174564
1557.643555 0.182413
1556.625000 0.181848
1555.607422 0.187590
1554.587891 0.169688
1553.569336 0.164925
1552.549805 0.174342
1551.531250 0.188480
1550.511719 0.184241
1549.491211 0.163735
1548.471680 0.172620
1547.451172 0.181501
1546.430664 0.178315
1545.410156 0.173558
1544.389648 0.186627
1543.368164 0.170340
1542.346680 0.185500
1541.325195 0.166076
1540.303711 0.173374
1539.282227 0.184858
1538.259766 0.166493
1537.237305 0.187396
1536.214844 0.182646
1535.191406 0.199874
1534.168945 0.175244
1533.145508 0.179391
1532.122070 0.176215
1531.098633 0.167813
1530.074219 0.180321
1529.050781 0.186554
1528.026367 0.182857
1527.000977 0.172893
1525.976563 0.175467
1524.951172 0.175952
1523.926758 0.180612
1522.901367 0.176398
1521.875000 0.175317
1520.849609 0.185191
1519.823242 0.197669
1518.796875 0.174162
1517.770508 0.179859
1516.743164 0.191808
1515.716797 0.182909
1514.689453 0.183390
1513.662109 0.181788
1512.634766 0.172896
1511.606445 0.183793
1510.578125 0.192082
1509.549805 0.185275
1508.521484 0.200845
1507.493164 0.195600
1506.463867 0.185156
1505.434570 0.194996
1504.405273 0.197553
1503.375977 0.201669
1502.345703 0.202665
1501.315430 0.199504
1500.285156 0.200500
1499.254883 0.193187
1498.223633 0.208721
1497.193359 0.211272
1496.162109 0.201365
1495.130859 0.194577
1494.098633 0.213729
1493.067383 0.199679
1492.035156 0.204822
1491.002930 0.212035
1489.969727 0.199032
1488.937500 0.202098
1487.904297 0.202055
1486.871094 0.207191
1485.837891 0.215432
1484.803711 0.210725
1483.770508 0.240703
1482.736328 0.219950
1481.702148 0.226111
1480.666992 0.227097
1479.632813 0.223428
1478.597656 0.216140
1477.562500 0.223331
1476.527344 0.224316
1475.491211 0.226851
1474.455078 0.204587
1473.418945 0.222621
1472.382813 0.215343
1471.346680 0.210650
1470.309570 0.213701
1469.272461 0.211591
1468.235352 0.210513
1467.198242 0.207372
1466.160156 0.201138
1465.122070 0.214501
1464.083984 0.199504
1463.045898 0.212346
1462.006836 0.217968
1460.968750 0.207617
1459.929688 0.200876
1458.889648 0.200832
1457.850586 0.205422
1456.810547 0.200745
1455.771484 0.215111
1454.730469 0.208375
1453.690430 0.214503
1452.649414 0.214970
1451.609375 0.223664
1450.568359 0.208194
1449.526367 0.210718
1448.485352 0.211186
1447.443359 0.226552
1446.401367 0.224962
1445.359375 0.229020
1444.316406 0.226404
1443.274414 0.205310
1442.231445 0.228870
1441.188477 0.222664
1440.144531 0.220051
1439.101563 0.214874
1438.057617 0.227132
1437.013672 0.237335
1435.968750 0.244458
1434.924805 0.246454
1433.879883 0.253572
1432.834961 0.251467
1431.790039 0.254485
1430.744141 0.253405
1429.698242 0.279452
1428.653320 0.285020
1427.606445 0.274214
1426.560547 0.289498
1425.513672 0.289435
1424.466797 0.307265
1423.419922 0.303109
1422.373047 0.286178
1421.325195 0.292757
1420.277344 0.294736
1419.229492 0.295182
1418.181641 0.298181
1417.132813 0.291990
1416.084961 0.292436
1415.036133 0.295433
1413.986328 0.285165
1412.937500 0.291223
1411.887695 0.291669
1410.837891 0.291095
1409.788086 0.304282
1408.738281 0.314916
1407.687500 0.320961
1406.636719 0.315287
1405.585938 0.293320
1404.534180 0.309548
1403.483398 0.291664
1402.431641 0.293635
1401.379883 0.293570
1400.327148 0.298592
1399.275391 0.284795
1398.222656 0.274563
1397.169922 0.273486
1396.117188 0.268343
1395.063477 0.267776
1394.009766 0.276861
1392.956055 0.274768
1391.902344 0.275723
1390.848633 0.277185
1389.793945 0.312144
1388.739258 0.286196
1387.684570 0.310991
1386.628906 0.290634
1385.574219 0.293105
1384.518555 0.291519
1383.462891 0.299565
1382.406250 0.303552
1381.350586 0.334391
1380.293945 0.335836
1379.237305 0.331204
1378.179688 0.350370
1377.123047 0.349280
1376.065430 0.347684
1375.007813 0.323826
1373.949219 0.342977
1372.891602 0.348969
1371.833008 0.331194
1370.774414 0.333143
1369.715820 0.314368
1368.656250 0.297623
1367.596680 0.285432
1366.537109 0.287389
1365.477539 0.269651
1364.417969 0.265552
1363.357422 0.263979
1362.296875 0.244744
1361.236328 0.251753
1360.174805 0.249679
1359.113281 0.249623
1358.052734 0.237971
1356.990234 0.246487
1355.928711 0.254495
1354.866211 0.235293
1353.803711 0.249344
1352.741211 0.243749
1351.678711 0.252757
1350.615234 0.250687
1349.551758 0.247108
1348.488281 0.249065
1347.424805 0.249010
1346.360352 0.266557
1345.295898 0.255435
1344.231445 0.261913
1343.166992 0.250797
1342.101563 0.253253
1341.036133 0.255708
1339.970703 0.246108
1338.905273 0.265636
1337.838867 0.250013
1336.772461 0.250961
1335.706055 0.249901
1334.639648 0.252855
1333.572266 0.265338
1332.504883 0.249732
1331.437500 0.274243
1330.370117 0.263153
1329.302734 0.272115
1328.234375 0.275560
1327.166016 0.280006
1326.096680 0.267924
1325.028320 0.273371
1323.958984 0.265301
1322.889648 0.270746
1321.820313 0.264680
1320.750000 0.264621
1319.679688 0.252558
1318.609375 0.246001
1317.539063 0.249945
1316.468750 0.262882
1315.397461 0.250331
1314.326172 0.257268
1313.254883 0.244225
1312.182617 0.238177
1311.142578 0.235128
1311.110352 0.238525
1310.069336 0.240066
1310.038086 0.237028
1308.997070 0.239512
1308.965820 0.234990
1307.923828 0.222995
1307.892578 0.229461
1306.851563 0.233917
1306.820313 0.223934
1305.778320 0.210927
1305.747070 0.223894
1304.704102 0.224838
1304.672852 0.224851
1303.630859 0.225784
1303.599609 0.219826
1302.557617 0.229719
1302.525391 0.230252
1301.483398 0.218208
1301.451172 0.216757
1300.409180 0.226128
1300.376953 0.237144
1299.334961 0.236036
1299.301758 0.229132
1298.259766 0.230506
1298.227539 0.243035
1297.185547 0.232444
1297.152344 0.226062
1296.110352 0.233386
1296.076172 0.226021
1295.035156 0.228856
1295.000977 0.238424
1293.959961 0.251186
1293.924805 0.241367
1292.883789 0.257097
1292.848633 0.241821
1291.808594 0.247249
1291.772461 0.244609
1290.732422 0.240738
1290.695313 0.253500
1289.656250 0.244673
1289.618164 0.261890
1288.580078 0.262529
1288.541016 0.269780
1287.502930 0.268446
1287.463867 0.271705
1286.426758 0.264918
1286.386719 0.275616
1285.349609 0.278784
1285.308594 0.253707
1284.272461 0.275256
1284.230469 0.259606
1283.195313 0.262787
1283.152344 0.252599
1282.118164 0.247839
1282.073242 0.246091
1281.040039 0.249780
1280.994141 0.239586
1279.961914 0.247748
1279.915039 0.236556
1278.883789 0.241250
1278.835938 0.225098
1277.805664 0.237731
1277.755859 0.229012
1276.727539 0.215358
1276.676758 0.214092
1275.648438 0.233675
1275.596680 0.226925
1274.569336 0.222720
1274.515625 0.215975
1273.490234 0.220199
1273.435547 0.211469
1272.411133 0.209250
1272.354492 0.217857
1271.332031 0.230529
1271.273438 0.209887
1270.251953 0.214625
1270.191406 0.212313
1269.171875 0.210125
1269.110352 0.208306
1268.091797 0.214546
1268.028320 0.214194
1267.011719 0.203608
1266.946289 0.205243
1265.931641 0.209514
1265.864258 0.211129
1264.850586 0.218884
1264.781250 0.209103
1263.769531 0.204485
1263.698242 0.197194
1262.688477 0.197517
1262.615234 0.203078
1261.607422 0.215793
1261.532227 0.210441
1260.526367 0.206351
1260.448242 0.202490
1259.444336 0.214724
1259.364258 0.215775
1258.362305 0.209243
1258.280273 0.205852
1257.280273 0.207226
1257.196289 0.199882
1256.198242 0.217571
1256.111328 0.214639
1255.115234 0.197261
1255.026367 0.208176
1254.033203 0.210076
1253.941406 0.203196
1252.950195 0.204106
1252.856445 0.209067
1251.867188 0.220374
1251.770508 0.207046
1250.783203 0.203042
1250.684570 0.203548
1249.700195 0.203992
1249.598633 0.208429
1248.616211 0.207411
1248.511719 0.207395
1247.532227 0.211816
1247.425781 0.202422
1246.448242 0.215725
1246.338867 0.212716
1245.364258 0.207294
1245.250977 0.201836
1244.279297 0.207256
1244.164063 0.216062
1243.195313 0.211657
1243.076172 0.213060
1242.110352 0.225922
1241.988281 0.205139
1241.024414 0.211578
1240.900391 0.210502
1239.939453 0.209565
1239.812500 0.218321
1238.853516 0.216921
1238.723633 0.220728
1237.768555 0.214909
1237.634766 0.218711
1236.682617 0.223739
1236.544922 0.209815
1235.595703 0.217784
1235.456055 0.220574
1234.509766 0.218236
1234.366211 0.211191
1233.422852 0.216717
1233.276367 0.210160
1232.336914 0.221600
1232.186523 0.209620
1231.250000 0.201864
1231.095703 0.221841
1230.162109 0.207733
1230.004883 0.216392
1229.075195 0.208678
1228.914063 0.215851
1227.987305 0.216512
1227.823242 0.214329
1226.899414 0.206631
1226.731445 0.210847
1225.811523 0.210036
1225.639648 0.201974
1224.723633 0.211471
1224.547852 0.211239
1223.634766 0.211923
1223.456055 0.198939
1222.546875 0.217782
1222.363281 0.209670
1221.458008 0.203978
1221.270508 0.194439
1220.368164 0.218190
1220.177734 0.213979
1219.279297 0.213235
1219.084961 0.210992
1218.189453 0.219581
1217.991211 0.209964
1217.100586 0.219048
1216.897461 0.234380
1216.010742 0.226372
1215.803711 0.216714
1214.919922 0.227801
1214.708984 0.224978
1213.830078 0.238557
1213.614258 0.232749
1212.739258 0.253234
1212.519531 0.256159
1211.648438 0.264471
1211.424805 0.260498
1210.557617 0.264911
1210.329102 0.280470
1209.466797 0.289875
1209.234375 0.302876
1208.375977 0.300118
1208.138672 0.305246
1207.284180 0.302021
1207.041992 0.296874
1206.192383 0.290689
1205.946289 0.305103
1205.100586 0.305336
1204.849609 0.311864
1204.007813 0.301357
1203.752930 0.298616
1202.916016 0.297870
1202.655273 0.299522
1201.823242 0.286547
1201.558594 0.300427
1200.730469 0.279146
1200.460938 0.298405
1199.637695 0.299167
1199.362305 0.293460
1198.543945 0.304494
1198.264648 0.300214
1197.451172 0.290241
1197.166016 0.289424
1196.357422 0.299973
1196.067383 0.296176
1195.263672 0.294044
1194.968750 0.297080
1194.168945 0.315999
1193.870117 0.286785
1193.075195 0.293930
1192.770508 0.297426
1191.980469 0.304141
1191.670898 0.311956
1190.885742 0.305549
1190.570313 0.297285
1189.791016 0.318687
1189.470703 0.298188
1188.696289 0.290281
1188.370117 0.296172
1187.600586 0.290714
1187.269531 0.299019
1186.504883 0.279910
1186.167969 0.268324
1185.409180 0.266181
1185.067383 0.267289
1184.313477 0.260269
1183.965820 0.254593
1183.216797 0.249478
1182.864258 0.227816
1182.121094 0.243084
1181.761719 0.223877
1181.024414 0.241084
1180.659180 0.228194
1179.927734 0.222984
1179.556641 0.216004
1178.830078 0.223428
1178.454102 0.214497
1177.733398 0.230213
1177.351563 0.204258
1176.635742 0.224317
1176.248047 0.203724
1175.538086 0.223785
1175.144531 0.217254
1174.440430 0.208143
1174.040039 0.209445
1173.341797 0.195918
1172.936523 0.207941
1172.243164 0.203676
1171.832031 0.200138
1171.145508 0.196816
1170.727539 0.191369
1170.045898 0.202135
1169.622070 0.204886
1168.947266 0.204531
1168.517578 0.197573
1167.848633 0.200596
1167.412109 0.198979
1166.749023 0.194715
1166.306641 0.211516
1165.649414 0.189810
1165.200195 0.198400
1164.549805 0.185393
1164.093750 0.199804
1163.449219 0.205303
1162.987305 0.205076
1162.348633 0.199426
1161.880859 0.211313
1161.249023 0.205709
1160.773438 0.188541
1160.147461 0.203723
1159.666016 0.194779
1159.046875 0.205628
1158.558594 0.195699
1157.946289 0.207045
1157.451172 0.204831
1156.844727 0.206033
1156.342773 0.198503
1155.743164 0.193360
1155.234375 0.207629
1154.641602 0.196722
1154.125977 0.197442
1153.539063 0.205911
1153.017578 0.211391
1152.436523 0.202957
1151.908203 0.202655
1151.334961 0.205344
1150.798828 0.202606
1150.231445 0.202391
1149.689453 0.205451
1149.128906 0.198469
1148.579102 0.202991
1148.026367 0.211044
1147.468750 0.206798
1146.922852 0.213427
1146.358398 0.203857
1145.819336 0.197866
1145.248047 0.201399
1144.715820 0.200736
1144.136719 0.203277
1143.611328 0.213785
1143.025391 0.218638
1142.506836 0.206957
1141.914063 0.207030
1141.403320 0.213700
1140.801758 0.210831
1140.297852 0.218018
1139.689453 0.201637
1139.193359 0.219912
1138.577148 0.208324
1138.088867 0.215510
1137.464844 0.221741
1136.983398 0.226120
1136.351563 0.214474
1135.877930 0.222202
1135.239258 0.205288
1134.771484 0.218769
1134.125000 0.196106
1133.666016 0.202273
1133.011719 0.204227
1132.559570 0.222553
1131.897461 0.227238
1131.453125 0.219606
1130.783203 0.210852
1130.346680 0.213275
1129.668945 0.209841
1129.240234 0.214200
1128.553711 0.211230
1128.132813 0.208839
1127.439453 0.207339
1127.025391 0.210247
1126.324219 0.210648
1125.917969 0.208756
1125.208008 0.205799
1124.810547 0.203882
1124.092773 0.211504
1123.702148 0.214468
1122.976563 0.207617
1122.594727 0.215874
1121.859375 0.224344
1121.486328 0.236110
1120.743164 0.224290
1120.377930 0.208064
1119.625977 0.217527
1119.268555 0.215744
1118.508789 0.219390
1118.159180 0.212806
1117.391602 0.228914
1117.050781 0.219035
1116.273438 0.215453
1115.940430 0.208861
1115.155273 0.219229
1114.831055 0.216053
1114.037109 0.205298
1113.721680 0.222760
1112.918945 0.210032
1112.611328 0.215966
1111.799805 0.203762
1111.500977 0.209657
1110.680664 0.208494
1110.389648 0.198532
1109.561523 0.195535
1109.279297 0.198974
1108.441406 0.183538
1108.167969 0.195080
1107.321289 0.190661
1107.056641 0.191188
1106.201172 0.182970
1105.945313 0.171409
1105.081055 0.179582
1104.833984 0.175707
1103.959961 0.183835
1103.721680 0.184816
1102.838867 0.174243
1102.609375 0.190071
1101.717773 0.180882
1101.497070 0.178005
1100.595703 0.172248
1100.384766 0.187589
1099.473633 0.172206
1099.271484 0.169277
1098.351563 0.170256
1098.158203 0.175493
1097.229492 0.168784
1097.044922 0.178342
1096.106445 0.181136
1095.931641 0.182631
1094.983398 0.176802
1094.818359 0.168179
1093.860352 0.170564
1093.704102 0.165262
1092.737305 0.183859
1092.589844 0.168111
1091.613281 0.163813
1091.475586 0.157992
1090.489258 0.170438
1090.360352 0.178125
1089.364258 0.162780
1089.246094 0.165128
1088.240234 0.167499
1088.130859 0.165574
1087.115234 0.166030
1087.015625 0.165061
1085.989258 0.169318
1085.900391 0.173183
1084.864258 0.178786
1084.784180 0.170270
1083.738281 0.179217
1083.667969 0.180305
1082.612305 0.168242
1082.551758 0.171159
1081.486328 0.170575
1081.435547 0.173042
1080.359375 0.175758
1080.318359 0.179716
1079.232422 0.172865
1079.202148 0.176804
1078.105469 0.183267
1078.084961 0.165271
1076.977539 0.178950
1076.966797 0.177690
1075.849609 0.181278
1075.849609 0.189625
1074.731445 0.178386
1074.721680 0.176181
1073.613281 0.175970
1073.593750 0.165136
1072.495117 0.183039
1072.464844 0.182809
1071.376953 0.187556
1071.335938 0.189631
1070.257813 0.186561
1070.207031 0.186740
1069.138672 0.174088
1069.077148 0.192853
1068.019531 0.191266
1067.948242 0.183330
1066.900391 0.171626
1066.817383 0.191335
1065.781250 0.183540
1065.687500 0.182765
1064.661133 0.189715
1064.556641 0.184139
1063.541016 0.192542
1063.425781 0.194031
1062.419922 0.190592
1062.294922 0.189251
1061.299805 0.186255
1061.163086 0.197718
1060.178711 0.183351
1060.032227 0.200506
1059.057617 0.193339
1058.899414 0.192891
1057.936523 0.200935
1057.767578 0.207022
1056.815430 0.211392
1056.634766 0.209333
1055.693359 0.205146
1055.501953 0.202194
1054.571289 0.204627
1054.369141 0.196003
1053.449219 0.209354
1053.235352 0.200675
1052.327148 0.194530
1052.101563 0.211482
1051.204102 0.203547
1050.967773 0.199158
1050.081055 0.208748
1049.833984 0.201467
1048.958008 0.216329
1048.699219 0.216982
1047.834961 0.208185
1047.564453 0.211740
1046.710938 0.205761
1046.428711 0.208386
1045.586914 0.218575
1045.293945 0.211162
1044.462891 0.211389
1044.158203 0.211579
1043.338867 0.219913
1043.021484 0.219535
1042.213867 0.217488
1041.885742 0.216182
1041.089844 0.207451
1040.749023 0.210477
1039.964844 0.215971
1039.612305 0.216072
1038.838867 0.220207
1038.474609 0.221194
1037.713867 0.219685
1037.337891 0.213610
1036.587891 0.208705
1036.200195 0.216848
1035.461914 0.220070
1035.061523 0.239366
1034.335938 0.229053
1033.923828 0.235544
1033.209961 0.227105
1032.785156 0.238774
1032.083008 0.239408
1031.646484 0.252341
1030.956055 0.248382
1030.506836 0.243350
1029.829102 0.248330
1029.367188 0.256909
1028.701172 0.250652
1028.227539 0.246043
1027.574219 0.244904
1027.087891 0.253961
1026.446289 0.253395
1025.947266 0.244510
1025.318359 0.251444
1024.806641 0.242101
1024.189453 0.249020
1023.666016 0.246261
1023.061523 0.239484
1022.524414 0.232598
1021.932617 0.245598
1021.382813 0.241446
1020.803711 0.235118
1020.241211 0.233885
1019.674805 0.227486
1019.098633 0.204773
1018.544922 0.214645
1017.957031 0.207531
1017.415039 0.220759
1016.813477 0.212629
1016.285156 0.211240
1015.670898 0.209765
1015.155273 0.217825
1014.527344 0.214392
1014.024414 0.202157
1013.383789 0.215273
1012.894531 0.216314
1012.240234 0.215686
1011.763672 0.210117
1011.095703 0.223582
1010.631836 0.211492
1009.951172 0.234279
1009.500977 0.224693
1008.806641 0.240764
1008.369141 0.227011
1007.662109 0.252386
1007.237305 0.238311
1006.516602 0.290636
1006.105469 0.261426
1005.371094 0.290094
1004.972656 0.264680
1004.224609 0.317106
1003.840820 0.313769
1003.079102 0.356710
1002.708008 0.345356
1001.932617 0.391159
1001.575195 0.365595
1000.785156 0.401325
1000.441406 0.405659
999.638672 0.433411
999.307617 0.461287
998.491211 0.415575
998.173828 0.465438
997.342773 0.420596
997.040039 0.493657
996.195313 0.415825
995.906250 0.437876
995.046875 0.375637
994.771484 0.398628
993.898438 0.337333
993.636719 0.377320
992.749023 0.308365
992.501953 0.328671
991.599609 0.293848
991.367188 0.298900
990.450195 0.274683
990.231445 0.280926
989.300781 0.266699
989.095703 0.267200
987.959961 0.265731
986.824219 0.259551
985.687500 0.247251
984.550781 0.234015
983.414063 0.234437
982.277344 0.232975
981.139648 0.242808
980.001953 0.239463
978.864258 0.225302
977.726563 0.237011
976.587891 0.236960
975.449219 0.229389
974.310547 0.239210
973.171875 0.233051
972.032227 0.226895
970.893555 0.212757
969.752930 0.216468
968.613281 0.226281
967.473633 0.219662
966.333008 0.234632
965.192383 0.226137
964.050781 0.230311
962.910156 0.233545
961.768555 0.233495
960.626953 0.227820
959.485352 0.219336
958.342773 0.204763
957.200195 0.201441
956.057617 0.207018
954.915039 0.195736
953.771484 0.179776
952.628906 0.193312
951.485352 0.184379
950.340820 0.181533
949.197266 0.194592
948.052734 0.176779
946.908203 0.179079
945.762695 0.175768
944.618164 0.172927
943.472656 0.184572
942.327148 0.171919
941.181641 0.187295
940.035156 0.178383
938.888672 0.187215
937.742188 0.180640
936.595703 0.200202
935.448242 0.180563
934.301758 0.188921
933.154297 0.181885
932.005859 0.192570
930.858398 0.197657
929.709961 0.191555
928.561523 0.198970
927.413086 0.191007
926.263672 0.208666
925.114258 0.214209
923.964844 0.206714
922.815430 0.208066
921.665039 0.215467
920.514648 0.221004
919.364258 0.218631
918.213867 0.212073
917.062500 0.208307
915.911133 0.222208
914.759766 0.216583
913.608398 0.229548
912.456055 0.226711
911.303711 0.222946
910.151367 0.223827
908.999023 0.221921
907.845703 0.215839
906.692383 0.210688
905.539063 0.217138
904.385742 0.217091
903.231445 0.224001
902.077148 0.214679
900.922852 0.221586
899.768555 0.225246
898.613281 0.222881
897.458008 0.224686
896.302734 0.223711
895.146484 0.244037
893.991211 0.243059
892.834961 0.248560
891.678711 0.264704
890.521484 0.250304
889.364258 0.272915
888.207031 0.298292
887.049805 0.324120
885.892578 0.360106
884.734375 0.345239
883.576172 0.359950
882.417969 0.347399
881.258789 0.317302
880.099609 0.309383
878.940430 0.310239
877.781250 0.297710
876.621094 0.276418
875.461914 0.268514
874.301758 0.268456
873.140625 0.255946
871.980469 0.243903
870.819336 0.230943
869.658203 0.235962
868.496094 0.217019
867.334961 0.220197
866.172852 0.228899
865.010742 0.227008
863.847656 0.226498
862.685547 0.230591
861.522461 0.231001
860.359375 0.238311
859.195313 0.227220
858.031250 0.246025
856.867188 0.242293
855.703125 0.238103
854.539063 0.245864
853.374023 0.240296
852.208984 0.246216
851.043945 0.244784
849.877930 0.231415
848.711914 0.236873
847.545898 0.241870
846.379883 0.237228
845.212891 0.242223
844.046875 0.246756
842.879883 0.270547
841.711914 0.262235
840.544922 0.277304
839.376953 0.290532
838.208008 0.311543
837.040039 0.337584
835.871094 0.395670
834.702148 0.461971
833.533203 0.520004
832.364258 0.637048
831.194336 0.752668
830.024414 0.889737
828.854492 0.989701
827.683594 1.000000
826.513672 0.954523
825.342773 0.876615
824.170898 0.794172
823.000000 0.695775
821.828125 0.606100
820.656250 0.536557
819.483398 0.463848
818.311523 0.445032
817.138672 0.391542
815.965820 0.361800
814.791992 0.344387
813.619141 0.310108
812.445313 0.295905
811.270508 0.293105
810.096680 0.288939
808.921875 0.273839
807.747070 0.259201
806.572266 0.244570
805.396484 0.245882
804.221680 0.248559
803.045898 0.234395
801.869141 0.222057
800.693359 0.223828
799.516602 0.222414
798.339844 0.232368
797.162109 0.232772
795.985352 0.219539
794.807617 0.222671
793.628906 0.239432
792.451172 0.225752
791.272461 0.233422
790.093750 0.230646
788.915039 0.236496
787.735352 0.258228
786.556641 0.249096
785.375977 0.244958
784.196289 0.246718
783.015625 0.242582
781.835938 0.225302
780.654297 0.234770
779.473633 0.223842
778.291992 0.227870
777.110352 0.211061
775.928711 0.213731
774.747070 0.233151
773.564453 0.212278
772.381836 0.218566
771.199219 0.228923
770.015625 0.225254
768.832031 0.223847
767.648438 0.233744
766.464844 0.235500
765.280273 0.234091
764.095703 0.255274
762.911133 0.264252
761.725586 0.268709
760.541016 0.291676
759.355469 0.315536
758.168945 0.329005
756.983398 0.358260
755.796875 0.375322
754.610352 0.373434
753.422852 0.356667
752.236328 0.338555
751.048828 0.319550
749.861328 0.322182
748.672852 0.295981
747.485352 0.281502
746.296875 0.285942
745.107422 0.270571
743.918945 0.275911
742.729492 0.249300
741.540039 0.256892
740.349609 0.251887
739.160156 0.234292
737.969727 0.246828
736.779297 0.224298
735.587891 0.210766
734.397461 0.208922
733.206055 0.228639
732.013672 0.215115
730.822266 0.215516
729.629883 0.211428
728.437500 0.201058
727.244141 0.209987
726.051758 0.196930
724.858398 0.206304
723.665039 0.208948
722.470703 0.216522
721.276367 0.203028
720.082031 0.210152
718.887695 0.216824
717.693359 0.213192
716.498047 0.214935
715.302734 0.213544
714.106445 0.206782
712.911133 0.209868
711.714844 0.212057
710.517578 0.220061
709.321289 0.225377
708.124023 0.223985
706.926758 0.213654
705.729492 0.220309
704.531250 0.221600
703.333008 0.220656
702.134766 0.231324
700.936523 0.241094
699.737305 0.228541
698.538086 0.236076
697.338867 0.245839
696.138672 0.242214
694.938477 0.240376
693.738281 0.242551
692.538086 0.244279
691.336914 0.254920
690.135742 0.251743
688.934570 0.244113
687.732422 0.246285
686.531250 0.252017
685.328125 0.255076
684.125977 0.257689
682.923828 0.265194
681.720703 0.258906
680.516602 0.270856
679.313477 0.250340
678.109375 0.256507
676.905273 0.260894
675.701172 0.255947
674.496094 0.274547
673.291992 0.277594
672.085938 0.292184
670.880859 0.272140
669.674805 0.273410
668.468750 0.270241
667.262695 0.273285
666.055664 0.271893
664.849609 0.269170
663.642578 0.275315
662.434570 0.264172
661.227539 0.241511
660.019531 0.264937
658.810547 0.248045
657.602539 0.254631
656.393555 0.244833
655.184570 0.254515
653.975586 0.255785
652.765625 0.254399
651.555664 0.259649
650.345703 0.244996
649.134766 0.240519
647.924805 0.236044
646.712891 0.237757
645.501953 0.221356
644.291016 0.240741
643.079102 0.223904
641.866211 0.230917
640.654297 0.234396
639.441406 0.221102
638.228516 0.225464
637.015625 0.238205
635.801758 0.225802
634.587891 0.235450
633.374023 0.249062
632.160156 0.230935
630.945313 0.230442
629.730469 0.248450
628.514648 0.240906
627.299805 0.245694
626.083984 0.229790
624.868164 0.238980
623.651367 0.251245
622.435547 0.251627
621.218750 0.255528
620.000977 0.250632
618.784180 0.267279
617.566406 0.257109
616.347656 0.268914
615.129883 0.255673
613.911133 0.260006
612.692383 0.246774
611.473633 0.236620
610.253906 0.244465
609.034180 0.247481
607.814453 0.245230
606.594727 0.257016
605.374023 0.258272
604.153320 0.258212
602.931641 0.252893
601.710938 0.243195
600.489258 0.230872
599.267578 0.220745
598.044922 0.220694
596.822266 0.221519
595.599609 0.217528
594.376953 0.203913
593.153320 0.209116
591.929688 0.216940
590.706055 0.217764
589.481445 0.219026
588.257813 0.207611
587.032227 0.232470
585.807617 0.217563
584.582031 0.210087
583.356445 0.203925
582.130859 0.210863
580.905273 0.197284
579.678711 0.204220
578.452148 0.208971
577.224609 0.208487
575.997070 0.210619
574.769531 0.214057
573.541992 0.205290
572.313477 0.210908
571.084961 0.206066
569.856445 0.220392
568.627930 0.200310
567.398438 0.208970
566.168945 0.212839
564.939453 0.221492
563.708984 0.208389
562.478516 0.222259
561.248047 0.219598
560.016602 0.197375
558.785156 0.210803
557.553711 0.223356
556.322266 0.220262
555.089844 0.214565
553.857422 0.216686
552.625000 0.212294
551.391602 0.209640
550.158203 0.213930
548.924805 0.203468
547.690430 0.211662
546.457031 0.209444
545.222656 0.206794
543.987305 0.219315
542.752930 0.223597
541.517578 0.223112
540.281250 0.222193
539.045898 0.223873
537.809570 0.217327
536.573242 0.219007
535.335938 0.236265
534.099609 0.226259
532.861328 0.233126
531.624023 0.223991
530.385742 0.220047
529.148438 0.216538
527.909180 0.231179
526.670898 0.233285
525.431641 0.223728
524.192383 0.220221
522.952148 0.229235
521.712891 0.226160
520.472656 0.219203
519.231445 0.234250
517.991211 0.220825
516.750000 0.226378
515.508789 0.234947
514.266602 0.236615
513.024414 0.235267
511.782227 0.229180
510.540039 0.247646
509.296875 0.235962
508.053711 0.229879
506.810547 0.237142
505.566406 0.234934
504.322266 0.244343
503.078125 0.240844
501.833008 0.225738
500.587891 0.255776
499.342773 0.238525
498.097656 0.264678
496.851563 0.258172
495.605469 0.258970
494.359375 0.265349
493.112305 0.251120
491.865234 0.262219
490.618164 0.258724
489.370117 0.271532
488.123047 0.270610
486.874023 0.265829
485.625977 0.282484
484.376953 0.284131
483.127930 0.279779
481.878906 0.289993
480.628906 0.288639
479.378906 0.308693
478.128906 0.306908
476.877930 0.316250
475.626953 0.307190
474.375977 0.326365
473.125000 0.330991
471.873047 0.345876
470.621094 0.362891
469.368164 0.366650
468.115234 0.389206
466.862305 0.402781
465.609375 0.432577
464.355469 0.474312
463.102539 0.506637
461.847656 0.527426
460.593750 0.587879
459.338867 0.640200
458.083984 0.715096
456.828125 0.792088
455.572266 0.828126
454.316406 0.838580
453.060547 0.803447
451.803711 0.744906
450.546875 0.682560
449.290039 0.595128
448.032227 0.545616
446.774414 0.492298
445.516602 0.467082
444.257813 0.428268
442.999023 0.400528
441.740234 0.405958
440.481445 0.397361
439.221680 0.399390
437.961914 0.384851
436.701172 0.385608
435.441406 0.380420
434.180664 0.379904
432.918945 0.396788
431.658203 0.401783
430.396484 0.394052
429.133789 0.402862
427.872070 0.387502
426.609375 0.361553
425.346680 0.363585
424.083008 0.354600
422.819336 0.354938
421.555664 0.326905
420.291016 0.339949
419.027344 0.335635
417.762695 0.336823
416.497070 0.350702
415.231445 0.359076
413.965820 0.378439
412.700195 0.366088
411.433594 0.366845
410.166992 0.368024
408.900391 0.389056
407.632813 0.389806
406.365234 0.394778
405.097656 0.395949
403.830078 0.394164
402.561523 0.415164
401.291992 0.420547
400.023438 0.417493
398.753906 0.411489
397.484375 0.425298
396.214844 0.419295
394.944336 0.441943
393.673828 0.424145
392.402344 0.447202
391.130859 0.455934
389.859375 0.467608
388.587891 0.471281
387.315430 0.464014
386.042969 0.474415
384.770508 0.470935
383.497070 0.478807
382.223633 0.492980
380.950195 0.505884
379.676758 0.499040
378.402344 0.482959
377.126953 0.505093
375.852539 0.510006
374.577148 0.485961
373.301758 0.488359
372.025391 0.503759
370.749023 0.493152
369.472656 0.475003
368.196289 0.497520
366.918945 0.485246
365.641602 0.459153
364.363281 0.470767
363.085938 0.482795
361.807617 0.462582
360.528320 0.468327
359.249023 0.459425
357.969727 0.453455
356.690430 0.451253
355.410156 0.449051
354.129883 0.446850
352.849609 0.438800
351.568359 0.430335
350.287109 0.422710
349.005859 0.423859
347.723633 0.420414
346.441406 0.410293
345.159180 0.413112
343.875977 0.412593
342.592773 0.416244
341.309570 0.392791
340.026367 0.402698
338.742188 0.382177
337.457031 0.385832
336.172852 0.366574
334.887695 0.379810
333.602539 0.356816
332.316406 0.357976
331.030273 0.362881
329.744141 0.365703
328.457031 0.348558
327.170898 0.340987
325.882813 0.343812
324.595703 0.355779
323.307617 0.360677
322.019531 0.344801
320.730469 0.373372
319.441406 0.364144
318.152344 0.365299
316.863281 0.371432
315.573242 0.365946
314.283203 0.361292
312.992188 0.363275
311.701172 0.364428
310.410156 0.364336
309.119141 0.371290
307.827148 0.385282
306.535156 0.400096
305.242188 0.405379
303.950195 0.404449
302.656250 0.422971
301.363281 0.434451
300.069336 0.437651
298.775391 0.447052
297.480469 0.462651
296.186523 0.460055
294.891602 0.498370
293.595703 0.515596
292.299805 0.532814
291.003906 0.562824
289.708008 0.585800
288.411133 0.615781
287.114258 0.651523
285.816406 0.678172
284.518555 0.691197
283.220703 0.735139
281.922852 0.734953
280.624023 0.745070
279.325195 0.741997
278.025391 0.728217
276.725586 0.742445
275.425781 0.747608
274.125977 0.740010
272.825195 0.770271
271.523438 0.793524
270.222656 0.824167
268.920898 0.855616
267.619141 0.906369
266.316406 0.926275
265.013672 0.967945
263.710938 1.011647
262.408203 1.052863
261.104492 1.120332
259.799805 1.172581
258.496094 1.188694
257.191406 1.224490
255.886719 1.288564
254.581055 1.329645
253.275391 1.355949
251.969727 1.406007
250.663086 1.451942
249.356445 1.462219
248.049805 1.486413
246.742188 1.514279
245.434570 1.543768
244.126953 1.583061
242.818359 1.529476
241.509766 1.561391
240.201172 1.519287
238.891602 1.517670
237.582031 1.494804
236.271484 1.461737
234.961914 1.428686
233.650391 1.382994
232.339844 1.385495
231.028320 1.349223
229.716797 1.332147
228.405273 1.268578
227.092773 1.269474
225.779297 1.240607
224.466797 1.212570
223.153320 1.191883
221.839844 1.177723
220.525391 1.170495
219.210938 1.168970
217.896484 1.148314
216.581055 1.130517
215.265625 1.094421
213.950195 1.080307
212.633789 1.065794
211.317383 1.041532
210.000977 1.050202
208.683594 1.021080
207.366211 1.033407
206.048828 1.016081
204.730469 0.995110
203.412109 0.980238
202.092773 0.948736
200.773438 0.993925
199.454102 0.979470
198.133789 0.977187
196.814453 0.965986
195.493164 0.951549
194.172852 0.967101
192.851563 0.993986
191.529297 0.972264
190.208008 0.976867
188.885742 0.985919
187.562500 0.997799
186.239258 0.990255
184.916016 1.011833
183.592773 1.022079
182.268555 1.014534
180.944336 1.060333
179.619141 1.063286
178.293945 1.077949
176.968750 1.080087
175.643555 1.097563
174.317383 1.110591
172.990234 1.130873
171.664063 1.153968
170.336914 1.146001
169.008789 1.189236
167.680664 1.196176
166.352539 1.230107
165.024414 1.265228
163.695313 1.287846
162.366211 1.341049
161.036133 1.371282
159.706055 1.395061
158.375977 1.443365
157.044922 1.546338
155.713867 1.580102
154.382813 1.663287
153.050781 1.722317
151.718750 1.754399
150.385742 1.802930
149.053711 1.837381
147.719727 1.889074
146.386719 1.919069
145.052734 1.967903
143.717773 1.980211
142.383789 1.960433
141.048828 1.984362
139.712891 2.021903
138.377930 2.017354
137.041016 2.030831
135.705078 2.044302
134.368164 2.040949
133.031250 2.043602
131.693359 2.067060
130.355469 2.086504
129.017578 2.079543
127.678711 2.067388
126.339844 2.045246
125.000977 2.057880
123.661133 2.036951
122.321289 2.036001
120.980469 2.070186
119.639648 2.078806
118.298828 2.067070
116.957031 2.059328
115.615234 2.095462
114.273438 2.075755
112.930664 2.154117
111.587891 2.119260
110.244141 2.125855
108.900391 2.146784
107.556641 2.076518
106.211914 2.058835
104.867188 1.948038
103.522461 1.801891
102.176758 1.689234
100.831055 1.534886
99.484375 1.332919
98.137695 1.125895
