3198.529297 0.009703
3197.824219 0.007761
3197.119141 0.009053
3196.414063 0.005819
3195.708008 0.008404
3195.001953 0.003878
3194.296875 0.003877
3193.590820 0.003877
3192.884766 0.008398
3192.178711 0.006459
3191.472656 0.010333
3190.765625 0.007103
3190.059570 0.003874
3189.352539 0.007101
3188.646484 0.008391
3187.939453 0.006453
3187.232422 0.010324
3186.525391 0.003871
3185.818359 0.003225
3185.111328 0.007739
3184.404297 0.008383
3183.696289 0.003224
3182.989258 0.009025
3182.281250 0.008379
3181.573242 0.003222
3180.865234 0.002577
3180.157227 0.008375
3179.449219 0.007729
3178.741211 0.007084
3178.033203 0.007083
3177.324219 0.003863
3176.616211 0.007724
3175.907227 0.005792
3175.198242 0.006435
3174.489258 0.005790
3173.780273 0.009649
3173.071289 0.003216
3172.362305 0.008360
3171.652344 0.003858
3170.943359 0.011572
3170.233398 0.006428
3169.523438 0.008355
3168.814453 0.006426
3168.104492 0.003855
3167.394531 0.005781
3166.683594 0.006422
3165.973633 0.010274
3165.263672 0.006420
3164.552734 0.008345
3163.841797 0.003851
3163.130859 0.009626
3162.420898 0.008341
3161.709961 0.003849
3160.998047 0.007697
3160.287109 0.003848
3159.576172 0.005771
3158.864258 0.003847
3158.153320 0.007692
3157.441406 0.007691
3156.729492 0.006408
3156.017578 0.005766
3155.305664 0.006406
3154.593750 0.008967
3153.880859 0.006404
3153.168945 0.007043
3152.456055 0.005761
3151.744141 0.006401
3151.031250 0.008319
3150.318359 0.008318
3149.605469 0.003838
3148.892578 0.006396
3148.178711 0.007035
3147.465820 0.007034
3146.751953 0.008311
3146.039063 0.006392
3145.325195 0.008308
3144.611328 0.006390
3143.897461 0.008306
3143.183594 0.005749
3142.468750 0.005748
3141.754883 0.007663
3141.041016 0.010215
3140.326172 0.007022
3139.611328 0.005744
3138.896484 0.007020
3138.181641 0.008295
3137.466797 0.012121
3136.751953 0.010205
3136.037109 0.000638
3135.321289 0.006376
3134.605469 0.007013
3133.890625 0.008924
3133.174805 0.005736
3132.458984 0.003823
3131.743164 0.003823
3131.027344 0.006370
3130.310547 0.006369
3129.594727 0.003821
3128.877930 0.007003
3128.161133 0.009548
3127.445313 0.008274
3126.728516 0.006363
3126.010742 0.005726
3125.293945 0.011450
3124.577148 0.009540
3123.859375 0.008903
3123.142578 0.005722
3122.424805 0.006993
3121.707031 0.006991
3120.989258 0.009532
3120.271484 0.008260
3119.553711 0.008258
3118.835938 0.008257
3118.117188 0.008256
3117.399414 0.008254
3116.680664 0.009522
3115.961914 0.006982
3115.243164 0.005712
3114.524414 0.008883
3113.805664 0.003806
3113.086914 0.008880
3112.367188 0.006342
3111.648438 0.008243
3110.928711 0.011411
3110.208984 0.006972
3109.489258 0.008239
3108.769531 0.009505
3108.049805 0.008869
3107.329102 0.006968
3106.609375 0.006333
3105.888672 0.007598
3105.168945 0.012662
3104.448242 0.010761
3103.727539 0.010759
3103.006836 0.007593
3102.285156 0.012653
3101.564453 0.008223
3100.843750 0.007589
3100.122070 0.008220
3099.400391 0.012012
3098.678711 0.008850
3097.957031 0.008216
3097.235352 0.007583
3096.513672 0.006950
3095.791992 0.008212
3095.069336 0.008210
3094.346680 0.013261
3093.625000 0.010733
3092.902344 0.007575
3092.179688 0.011360
3091.457031 0.006941
3090.733398 0.006940
3090.010742 0.010093
3089.287109 0.009460
3088.564453 0.009459
3087.840820 0.007566
3087.117188 0.007564
3086.393555 0.003782
3085.669922 0.010082
3084.946289 0.011341
3084.221680 0.011339
3083.498047 0.009447
3082.773438 0.010705
3082.048828 0.009444
3081.324219 0.011331
3080.599609 0.006294
3079.875000 0.010697
3079.149414 0.011325
3078.424805 0.010065
3077.699219 0.008176
3076.974609 0.011319
3076.249023 0.006287
3075.523438 0.009429
3074.797852 0.010684
3074.071289 0.005655
3073.345703 0.010052
3072.619141 0.011307
3071.893555 0.008793
3071.166992 0.011303
3070.440430 0.010045
3069.713867 0.008160
3068.987305 0.010669
3068.259766 0.007530
3067.533203 0.006901
3066.805664 0.009409
3066.079102 0.009407
3065.351563 0.008152
3064.624023 0.011912
3063.896484 0.010656
3063.168945 0.009401
3062.440430 0.009399
3061.712891 0.009397
3060.984375 0.009396
3060.255859 0.008768
3059.527344 0.011897
3058.798828 0.008765
3058.070313 0.012519
3057.341797 0.010013
3056.613281 0.011888
3055.883789 0.011886
3055.154297 0.006255
3054.424805 0.010006
3053.695313 0.009379
3052.965820 0.009377
3052.236328 0.011251
3051.506836 0.007499
3050.776367 0.011247
3050.046875 0.013119
3049.316406 0.010618
3048.585938 0.012490
3047.855469 0.012487
3047.125000 0.012485
3046.393555 0.008738
3045.663086 0.012481
3044.931641 0.011231
3044.201172 0.011229
3043.469727 0.009979
3042.738281 0.011225
3042.006836 0.013093
3041.275391 0.014961
3040.542969 0.008102
3039.811523 0.012463
3039.079102 0.011837
3038.346680 0.011835
3037.614258 0.013702
3036.881836 0.009963
3036.149414 0.011206
3035.416992 0.009959
3034.683594 0.010580
3033.951172 0.009334
3033.217773 0.010576
3032.484375 0.013062
3031.750977 0.011816
3031.017578 0.010570
3030.284180 0.013055
3029.549805 0.010567
3028.816406 0.013672
3028.082031 0.015533
3027.347656 0.016152
3026.613281 0.009317
3025.878906 0.011799
3025.144531 0.013659
3024.410156 0.010553
3023.674805 0.014275
3022.939453 0.011790
3022.205078 0.013029
3021.469727 0.013027
3020.734375 0.012404
3019.999023 0.014882
3019.262695 0.014880
3018.527344 0.013637
3017.791016 0.010536
3017.054688 0.011773
3016.318359 0.012391
3015.582031 0.009291
3014.845703 0.016721
3014.109375 0.015480
3013.373047 0.014239
3012.635742 0.016712
3011.898438 0.016090
3011.161133 0.014231
3010.424805 0.017940
3009.686523 0.015463
3008.949219 0.014223
3008.211914 0.015457
3007.473633 0.018545
3006.736328 0.016069
3005.998047 0.014831
3005.259766 0.021006
3004.521484 0.014825
3003.782227 0.014822
3003.043945 0.017907
3002.305664 0.012965
3001.566406 0.020370
3000.827148 0.019132
3000.087891 0.014192
2999.348633 0.019741
2998.609375 0.020971
2997.870117 0.019734
2997.129883 0.019730
2996.389648 0.014179
2995.650391 0.017258
2994.910156 0.017871
2994.169922 0.022180
2993.429688 0.017864
2992.688477 0.011702
2991.948242 0.018473
2991.207031 0.022164
2990.465820 0.023391
2989.725586 0.022771
2988.983398 0.022767
2988.242188 0.017226
2987.500977 0.019683
2986.759766 0.020909
2986.017578 0.023365
2985.275391 0.025820
2984.533203 0.024586
2983.791016 0.025810
2983.048828 0.027034
2982.306641 0.025186
2981.563477 0.028252
2980.821289 0.024563
2980.078125 0.022716
2979.334961 0.023940
2978.591797 0.026390
2977.848633 0.029453
2977.105469 0.020859
2976.361328 0.036190
2975.618164 0.026984
2974.874023 0.032497
2974.129883 0.030652
2973.385742 0.035550
2972.641602 0.038607
2971.897461 0.034924
2971.152344 0.030629
2970.408203 0.036748
2969.663086 0.041640
2968.917969 0.041020
2968.172852 0.041012
2967.427734 0.046513
2966.682617 0.035490
2965.936523 0.040989
2965.191406 0.041593
2964.445313 0.046478
2963.699219 0.042801
2962.953125 0.050740
2962.207031 0.048285
2961.460938 0.049498
2960.713867 0.049489
2959.967773 0.044593
2959.220703 0.051303
2958.473633 0.057400
2957.726563 0.055557
2956.979492 0.057378
2956.232422 0.062249
2955.484375 0.057967
2954.737305 0.056736
2953.989258 0.062214
2953.241211 0.056714
2952.493164 0.064020
2951.745117 0.055474
2950.997070 0.058511
2950.248047 0.070078
2949.500000 0.068846
2948.750977 0.064569
2948.001953 0.062730
2947.252930 0.065153
2946.503906 0.068794
2945.754883 0.062085
2945.004883 0.071202
2944.255859 0.068146
2943.505859 0.063875
2942.755859 0.059606
2942.005859 0.066892
2941.255859 0.065055
2940.504883 0.064435
2939.754883 0.064423
2939.003906 0.068664
2938.252930 0.063791
2937.502930 0.064386
2936.750977 0.066803
2936.000000 0.064969
2935.249023 0.067992
2934.497070 0.060088
2933.746094 0.058863
2932.994141 0.057639
2932.242188 0.066120
2931.490234 0.066714
2930.738281 0.060638
2929.985352 0.058201
2929.233398 0.056978
2928.480469 0.060603
2927.727539 0.061198
2926.974609 0.066032
2926.221680 0.052695
2925.468750 0.052685
2924.715820 0.063573
2923.961914 0.059323
2923.208008 0.063548
2922.455078 0.065957
2921.701172 0.057474
2920.946289 0.060488
2920.192383 0.061081
2919.438477 0.067116
2918.683594 0.068312
2917.928711 0.056815
2917.173828 0.064056
2916.418945 0.063439
2915.664063 0.064635
2914.909180 0.064019
2914.153320 0.060384
2913.398438 0.062183
2912.642578 0.061568
2911.886719 0.067591
2911.130859 0.069388
2910.375000 0.063946
2909.619141 0.064536
2908.862305 0.068142
2908.105469 0.068129
2907.349609 0.062691
2906.592773 0.062679
2905.835938 0.068090
2905.078125 0.068679
2904.321289 0.065655
2903.563477 0.063835
2902.806641 0.068640
2902.048828 0.074045
2901.291016 0.067410
2900.533203 0.072211
2899.774414 0.077010
2899.016602 0.069175
2898.257813 0.072771
2897.500000 0.075162
2896.741211 0.077552
2895.982422 0.073330
2895.222656 0.069109
2894.463867 0.077507
2893.705078 0.073888
2892.945313 0.078678
2892.185547 0.076261
2891.425781 0.071444
2890.666016 0.076832
2889.906250 0.067815
2889.146484 0.078603
2888.385742 0.068989
2887.625000 0.076773
2886.864258 0.074359
2886.103516 0.069549
2885.342773 0.068936
2884.582031 0.066525
2883.821289 0.080294
2883.059570 0.066499
2882.297852 0.076070
2881.536133 0.077253
2880.774414 0.072448
2880.012695 0.073631
2879.250977 0.082595
2878.488281 0.074800
2877.726563 0.078375
2876.963867 0.080154
2876.201172 0.078344
2875.438477 0.085504
2874.674805 0.080108
2873.912109 0.078299
2873.149414 0.080076
2872.385742 0.083646
2871.622070 0.080045
2870.858398 0.080030
2870.094727 0.085985
2869.330078 0.082984
2868.566406 0.092518
2867.801758 0.083548
2867.038086 0.078759
2866.273438 0.082323
2865.508789 0.079921
2864.743164 0.082291
2863.978516 0.084063
2863.212891 0.073914
2862.448242 0.082243
2861.682617 0.079843
2860.916992 0.085785
2860.151367 0.086364
2859.384766 0.082774
2858.619141 0.079186
2857.852539 0.089885
2857.086914 0.085106
2856.320313 0.089255
2855.553711 0.079124
2854.786133 0.086841
2854.019531 0.078498
2853.251953 0.078483
2852.485352 0.072523
2851.717773 0.084990
2850.950195 0.077843
2850.182617 0.093274
2849.414063 0.079594
2848.646484 0.078391
2847.877930 0.079563
2847.110352 0.079547
2846.341797 0.086060
2845.573242 0.081890
2844.803711 0.073568
2844.035156 0.078892
2843.266602 0.084807
2842.497070 0.084197
2841.727539 0.077660
2840.958008 0.079423
2840.188477 0.074666
2839.418945 0.082354
2838.648438 0.084707
2837.878906 0.076991
2837.108398 0.078161
2836.337891 0.082881
2835.567383 0.069251
2834.795898 0.081073
2834.025391 0.072774
2833.254883 0.081041
2832.483398 0.077477
2831.711914 0.078644
2830.940430 0.082767
2830.168945 0.073294
2829.397461 0.085689
2828.625000 0.075037
2827.852539 0.072660
2827.081055 0.067330
2826.308594 0.080898
2825.536133 0.079111
2824.762695 0.070241
2823.990234 0.074358
2823.216797 0.067853
2822.444336 0.073739
2821.670898 0.067827
2820.897461 0.070762
2820.123047 0.063673
2819.349609 0.066018
2818.576172 0.068362
2817.801758 0.070117
2817.027344 0.074226
2816.252930 0.070089
2815.478516 0.068308
2814.704102 0.063585
2813.928711 0.072990
2813.154297 0.075919
2812.378906 0.062370
2811.603516 0.058240
2810.828125 0.062934
2810.052734 0.059393
2809.276367 0.062321
2808.500977 0.063484
2807.724609 0.070524
2806.948242 0.065222
2806.171875 0.066384
2805.395508 0.059322
2804.619141 0.060485
2803.841797 0.066931
2803.064453 0.064570
2802.288086 0.059275
2801.510742 0.061611
2800.733398 0.061012
2799.955078 0.064519
2799.177734 0.057469
2798.399414 0.060975
2797.621094 0.060377
2796.842773 0.063881
2796.064453 0.056251
2795.286133 0.062684
2794.507813 0.060329
2793.728516 0.059731
2792.950195 0.052108
2792.170898 0.060878
2791.391602 0.057940
2790.611328 0.065535
2789.832031 0.062012
2789.052734 0.052056
2788.272461 0.057894
2787.492188 0.056128
2786.711914 0.044426
2785.931641 0.053184
2785.151367 0.052589
2784.370117 0.051994
2783.588867 0.054904
2782.808594 0.050221
2782.027344 0.050211
2781.246094 0.047282
2780.463867 0.049607
2779.682617 0.050181
2778.900391 0.044337
2778.119141 0.051327
2777.336914 0.056566
2776.554688 0.048975
2775.771484 0.048382
2774.989258 0.056532
2774.206055 0.044284
2773.423828 0.054179
2772.640625 0.050673
2771.857422 0.048334
2771.074219 0.043084
2770.290039 0.043657
2769.506836 0.043649
2768.722656 0.051204
2767.938477 0.043049
2767.154297 0.038388
2766.370117 0.048847
2765.585938 0.051744
2764.800781 0.046502
2764.016602 0.048818
2763.231445 0.048227
2762.446289 0.052865
2761.661133 0.040657
2760.875000 0.045875
2760.089844 0.049930
2759.303711 0.049339
2758.518555 0.044687
2757.732422 0.045258
2756.945313 0.044669
2756.159180 0.045240
2755.373047 0.043491
2754.585938 0.048700
2753.798828 0.049270
2753.012695 0.042885
2752.224609 0.048670
2751.437500 0.056771
2750.650391 0.045755
2749.862305 0.049220
2749.074219 0.044578
2748.287109 0.054988
2747.499023 0.043982
2746.709961 0.042237
2745.921875 0.050327
2745.132813 0.054944
2744.344727 0.038164
2743.555664 0.047984
2742.766602 0.045084
2741.977539 0.046809
2741.187500 0.047955
2740.398438 0.047945
2739.608398 0.046203
2738.818359 0.047348
2738.028320 0.047339
2737.238281 0.043866
2736.448242 0.050782
2735.657227 0.045002
2734.866211 0.043262
2734.075195 0.044984
2733.284180 0.047858
2732.493164 0.046118
2731.702148 0.045533
2730.910156 0.046676
2730.119141 0.046666
2729.327148 0.043201
2728.535156 0.042616
2727.743164 0.040304
2726.950195 0.039145
2726.158203 0.044317
2725.365234 0.036827
2724.572266 0.042573
2723.779297 0.034511
2722.986328 0.036805
2722.193359 0.036222
2721.399414 0.042538
2720.606445 0.039656
2719.812500 0.044244
2719.018555 0.040214
2718.224609 0.040206
2717.430664 0.041920
2716.635742 0.044782
2715.840820 0.040181
2715.046875 0.040173
2714.251953 0.037870
2713.456055 0.041878
2712.661133 0.036707
2711.866211 0.040140
2711.070313 0.044718
2710.274414 0.045282
2709.478516 0.046992
2708.682617 0.044118
2707.886719 0.036662
2707.089844 0.031500
2706.293945 0.039510
2705.497070 0.034922
2704.700195 0.039494
2703.903320 0.038913
2703.105469 0.040050
2702.308594 0.038325
2701.510742 0.034886
2700.712891 0.043456
2699.915039 0.042875
2699.117188 0.038865
2698.319336 0.037143
2697.520508 0.038849
2696.722656 0.033701
2695.923828 0.033694
2695.125000 0.039396
2694.326172 0.038817
2693.526367 0.042234
2692.727539 0.037660
2691.927734 0.037652
2691.127930 0.035363
2690.328125 0.043910
2689.528320 0.039910
2688.728516 0.039901
2687.927734 0.038183
2687.126953 0.038175
2686.326172 0.039877
2685.525391 0.042146
2684.724609 0.039860
2683.923828 0.042129
2683.122070 0.037567
2682.321289 0.038128
2681.519531 0.036982
2680.717773 0.038112
2679.915039 0.042085
2679.113281 0.034116
2678.310547 0.036383
2677.508789 0.034670
2676.706055 0.036936
2675.903320 0.039201
2675.099609 0.041465
2674.296875 0.039753
2673.493164 0.039744
2672.690430 0.036898
2671.886719 0.035755
2671.083008 0.041422
2670.278320 0.035740
2669.474609 0.036300
2668.669922 0.039695
2667.865234 0.043088
2667.060547 0.041379
2666.255859 0.034003
2665.451172 0.039095
2664.646484 0.035122
2663.840820 0.036247
2663.035156 0.041336
2662.229492 0.036798
2661.423828 0.033960
2660.618164 0.034519
2659.811523 0.039604
2659.004883 0.039030
2658.199219 0.036760
2657.391602 0.035056
2656.584961 0.035614
2655.778320 0.039562
2655.033203 0.033412
2654.970703 0.038424
2654.227539 0.039641
2654.164063 0.037286
2653.421875 0.036237
2653.356445 0.038973
2652.616211 0.039628
2652.548828 0.035576
2651.810547 0.035094
2651.740234 0.037263
2651.004883 0.036220
2650.932617 0.037255
2650.198242 0.035082
2650.124023 0.037811
2649.392578 0.038471
2649.316406 0.037239
2648.585938 0.036768
2648.507813 0.036103
2647.779297 0.033368
2647.699219 0.034404
2646.972656 0.039018
2646.889648 0.038343
2646.166016 0.032227
2646.081055 0.039463
2645.359375 0.037875
2645.271484 0.036636
2644.552734 0.030521
2644.461914 0.039446
2643.745117 0.039558
2643.652344 0.039438
2642.938477 0.039551
2642.842773 0.035487
2642.130859 0.037850
2642.033203 0.043364
2641.323242 0.039538
2641.222656 0.043917
2640.515625 0.039532
2640.413086 0.034901
2639.708008 0.033879
2639.602539 0.036020
2638.899414 0.036696
2638.791992 0.043327
2638.091797 0.039512
2637.981445 0.036567
2637.283203 0.036120
2637.169922 0.038809
2636.475586 0.036114
2636.359375 0.037114
2635.666992 0.037800
2635.547852 0.045539
2634.858398 0.036666
2634.736328 0.039347
2634.049805 0.039480
2633.924805 0.035966
2633.241211 0.035526
2633.113281 0.041577
2632.431641 0.039467
2632.300781 0.043254
2631.623047 0.038897
2631.489258 0.035944
2630.813477 0.034945
2630.676758 0.036498
2630.003906 0.036630
2629.864258 0.039297
2629.194336 0.046202
2629.051758 0.040411
2628.384766 0.041124
2628.238281 0.051064
2627.575195 0.041681
2627.425781 0.045443
2626.765625 0.039421
2626.612305 0.043190
2625.955078 0.039414
2625.798828 0.051032
2625.145508 0.039408
2624.985352 0.045975
2624.334961 0.041653
2624.171875 0.047647
2623.524414 0.043334
2623.358398 0.034747
2622.713867 0.041639
2622.543945 0.047066
2621.903320 0.043320
2621.729492 0.043695
2621.092773 0.039375
2620.916016 0.049286
2620.281250 0.041618
2620.100586 0.041437
2619.469727 0.039362
2619.286133 0.040868
2618.659180 0.042166
2618.471680 0.044777
2617.847656 0.046094
2617.656250 0.044208
2617.036133 0.041028
2616.840820 0.043639
2616.224609 0.041583
2616.025391 0.038596
2615.412109 0.044947
2615.209961 0.048654
2614.600586 0.043816
2614.394531 0.045848
2613.788086 0.044371
2613.578125 0.045838
2612.976563 0.049417
2612.762695 0.035209
2612.164063 0.044917
2611.946289 0.044701
2611.351563 0.044348
2611.129883 0.036312
2610.539063 0.042096
2610.312500 0.038538
2609.726563 0.043772
2609.496094 0.044672
2608.913086 0.044326
2608.678711 0.047454
2608.100586 0.043196
2607.862305 0.043537
2607.287109 0.042628
2607.044922 0.047434
2606.473633 0.043182
2606.227539 0.044076
2605.660156 0.044296
2605.409180 0.042393
2604.846680 0.043728
2604.591797 0.046846
2604.033203 0.039236
2603.773438 0.039030
2603.218750 0.045394
2602.955078 0.041809
2602.405273 0.043705
2602.136719 0.046258
2601.590820 0.046499
2601.318359 0.045691
2600.776367 0.049292
2600.500000 0.045681
2599.961914 0.047603
2599.680664 0.046228
2599.147461 0.041436
2598.861328 0.038979
2598.333008 0.039189
2598.042969 0.046765
2597.518555 0.047019
2597.222656 0.043415
2596.703125 0.039176
2596.403320 0.043406
2595.888672 0.040848
2595.583984 0.046735
2595.073242 0.039162
2594.763672 0.045612
2594.257813 0.040834
2593.943359 0.042822
2593.442383 0.041945
2593.123047 0.033917
2592.625977 0.040820
2592.302734 0.048362
2591.810547 0.048081
2591.482422 0.042239
2590.994141 0.039129
2590.661133 0.037229
2590.178711 0.036328
2589.839844 0.044998
2589.362305 0.043586
2589.018555 0.047765
2588.545898 0.039109
2588.197266 0.042202
2587.729492 0.039102
2587.375977 0.047189
2586.913086 0.044680
2586.554688 0.042739
2586.095703 0.041880
2585.732422 0.035516
2585.279297 0.042431
2584.910156 0.042166
2584.461914 0.044657
2584.087891 0.043820
2583.644531 0.045207
2583.265625 0.041593
2582.827148 0.047432
2582.443359 0.043247
2582.009766 0.042402
2581.620117 0.041020
2581.192383 0.045184
2580.796875 0.041566
2580.374023 0.041272
2579.973633 0.040448
2579.556641 0.039034
2579.150391 0.036008
2578.738281 0.034567
2578.327148 0.041539
2577.919922 0.042923
2577.503906 0.045959
2577.101563 0.045145
2576.679688 0.042074
2576.283203 0.045137
2575.855469 0.042618
2575.464844 0.039000
2575.031250 0.037076
2574.645508 0.037322
2574.207031 0.038174
2573.827148 0.038430
2573.381836 0.037613
2573.007813 0.042321
2572.557617 0.040369
2572.188477 0.044541
2571.732422 0.040361
2571.369141 0.038966
2570.907227 0.042563
2570.549805 0.038959
2570.082031 0.037580
2569.730469 0.042291
2569.256836 0.036467
2568.910156 0.041171
2568.430664 0.040325
2568.090820 0.047283
2567.605469 0.040869
2567.270508 0.044494
2566.779297 0.040308
2566.450195 0.041706
2565.953125 0.041403
2565.629883 0.040586
2565.125977 0.035323
2564.809570 0.043359
2564.299805 0.037522
2563.989258 0.048353
2563.472656 0.038617
2563.167969 0.038342
2562.646484 0.040264
2562.346680 0.036669
2561.819336 0.043563
2561.526367 0.040551
2560.992188 0.038041
2560.705078 0.040544
2560.164063 0.042442
2559.883789 0.040536
2559.336914 0.038024
2559.061523 0.042750
2558.508789 0.041321
2558.240234 0.038857
2557.680664 0.041863
2557.417969 0.040515
2556.852539 0.044608
2556.596680 0.047167
2556.024414 0.041845
2555.774414 0.047713
2555.195313 0.040184
2554.952148 0.038829
2554.367188 0.048431
2554.129883 0.038822
2553.538086 0.043468
2553.307617 0.042697
2552.708984 0.042358
2552.484375 0.038809
2551.878906 0.042349
2551.662109 0.043236
2551.049805 0.038490
2550.838867 0.041012
2550.219727 0.036833
2550.015625 0.046546
2549.390625 0.040122
2549.192383 0.044875
2548.560547 0.040663
2548.369141 0.044313
2547.730469 0.040104
2547.544922 0.038767
2546.899414 0.038448
2546.721680 0.047066
2546.069336 0.046127
2545.897461 0.038754
2545.238281 0.046117
2545.074219 0.045389
2544.407227 0.040618
2544.250000 0.046488
2543.576172 0.041158
2543.425781 0.045373
2542.745117 0.041149
2542.600586 0.046471
2541.913086 0.043882
2541.776367 0.038166
2541.082031 0.046066
2540.951172 0.047007
2540.250000 0.043863
2540.126953 0.043129
2539.417969 0.043853
2539.301758 0.042568
2538.585938 0.043843
2538.476563 0.043666
2537.752930 0.049313
2537.651367 0.036474
2536.920898 0.039989
2536.826172 0.038677
2536.087891 0.040528
2536.000000 0.051376
2535.254883 0.044352
2535.174805 0.040873
2534.421875 0.038320
2534.348633 0.046388
2533.587891 0.045427
2533.522461 0.036441
2532.754883 0.038303
2532.696289 0.043059
2531.920898 0.038294
2531.870117 0.043603
2531.086914 0.038286
2531.042969 0.046906
2530.252930 0.043199
2530.216797 0.045243
2529.418945 0.042096
2529.389648 0.049648
2528.583984 0.043179
2528.562500 0.041917
2527.749023 0.044263
2527.735352 0.041358
2526.914063 0.048623
2526.908203 0.044659
2526.081055 0.048066
2526.079102 0.044099
2525.253906 0.037134
2525.244141 0.046296
2524.425781 0.043131
2524.409180 0.041328
2523.597656 0.045851
2523.573242 0.048483
2522.769531 0.044618
2522.737305 0.045295
2521.941406 0.044059
2521.901367 0.037101
2521.113281 0.051760
2521.065430 0.043638
2520.285156 0.049549
2520.228516 0.041992
2519.456055 0.042384
2519.392578 0.043618
2518.627930 0.046779
2518.555664 0.049605
2517.798828 0.047321
2517.718750 0.047959
2516.969727 0.042361
2516.881836 0.043589
2516.140625 0.046754
2516.043945 0.051205
2515.311523 0.043995
2515.207031 0.043025
2514.481445 0.041788
2514.369141 0.046282
2513.651367 0.045079
2513.531250 0.048993
2512.822266 0.052216
2512.693359 0.047350
2511.992188 0.038468
2511.855469 0.040809
2511.162109 0.045604
2511.016602 0.040256
2510.332031 0.046694
2510.177734 0.040791
2509.500977 0.052727
2509.338867 0.046219
2508.670898 0.046677
2508.500000 0.045122
2507.839844 0.050512
2507.661133 0.048916
2507.008789 0.048856
2506.821289 0.043471
2506.177734 0.046651
2505.982422 0.043461
2505.346680 0.046643
2505.142578 0.046167
2504.515625 0.047731
2504.302734 0.052130
2503.683594 0.048820
2503.461914 0.045060
2502.852539 0.041681
2502.622070 0.043964
2502.020508 0.053737
2501.781250 0.049924
2501.188477 0.045503
2500.940430 0.040147
2500.356445 0.049880
2500.099609 0.050986
2499.524414 0.044391
2499.258789 0.043382
2498.691406 0.050958
2498.416992 0.048794
2497.859375 0.049853
2497.576172 0.046073
2497.026367 0.055321
2496.734375 0.048772
2496.193359 0.038334
2495.892578 0.048760
2495.360352 0.049278
2495.050781 0.048208
2494.527344 0.049816
2494.208008 0.047655
2493.694336 0.051996
2493.365234 0.046561
2492.860352 0.043778
2492.523438 0.044386
2492.027344 0.048147
2491.680664 0.044375
2491.193359 0.050873
2490.836914 0.037873
2490.359375 0.050864
2489.994141 0.048142
2489.525391 0.044839
2489.150391 0.048131
2488.691406 0.042644
2488.306641 0.043253
2487.856445 0.045369
2487.462891 0.056217
2487.022461 0.051373
2486.619141 0.044855
2486.187500 0.047538
2485.775391 0.048086
2485.352539 0.046437
2484.930664 0.051316
2484.517578 0.051890
2484.085938 0.047524
2483.682617 0.050788
2483.241211 0.044814
2482.846680 0.054601
2482.396484 0.050741
2482.011719 0.051861
2481.550781 0.047491
2481.175781 0.055127
2480.706055 0.044243
2480.339844 0.046931
2479.860352 0.046930
2479.503906 0.044194
2479.014648 0.046919
2478.667969 0.051823
2478.168945 0.051222
2477.832031 0.041451
2477.322266 0.053905
2476.995117 0.046896
2476.476563 0.048504
2476.158203 0.045251
2475.629883 0.048492
2475.322266 0.048514
2474.783203 0.042017
2474.485352 0.052320
2473.936523 0.043623
2473.647461 0.046316
2473.088867 0.051151
2472.810547 0.038135
2472.242188 0.041449
2471.973633 0.043575
2471.394531 0.048974
2471.135742 0.050647
2470.546875 0.048425
2470.297852 0.053904
2469.698242 0.047876
2469.459961 0.043551
2468.850586 0.054856
2468.622070 0.040821
2468.001953 0.045165
2467.784180 0.050065
2467.153320 0.049455
2466.946289 0.040262
2466.304688 0.054280
2466.107422 0.045150
2465.456055 0.047283
2465.268555 0.051668
2464.607422 0.051032
2464.429688 0.052202
2463.757813 0.051020
2463.590820 0.048387
2462.908203 0.047787
2462.751953 0.052183
2462.058594 0.046702
2461.913086 0.049999
2461.208984 0.042934
2461.073242 0.044013
2460.358398 0.046680
2460.233398 0.055413
2459.508789 0.046669
2459.394531 0.052687
2458.658203 0.048803
2458.554688 0.045617
2457.807617 0.050937
2457.713867 0.052124
2456.956055 0.040204
2456.874023 0.056457
2456.105469 0.045553
2456.033203 0.037450
2455.253906 0.045543
2455.193359 0.047211
2454.402344 0.047675
2454.352539 0.048829
2453.550781 0.046057
2453.511719 0.049363
2452.699219 0.045511
2452.670898 0.052607
2451.846680 0.048176
2451.829102 0.042837
2450.995117 0.047095
2450.988281 0.049335
2450.146484 0.046549
2450.142578 0.048783
2449.304688 0.048677
2449.290039 0.047690
2448.462891 0.048666
2448.436523 0.054183
2447.621094 0.043338
2447.583984 0.048654
2446.779297 0.037914
2446.730469 0.043832
2445.937500 0.047654
2445.876953 0.040081
2445.094727 0.047104
2445.023438 0.047551
2444.251953 0.047636
2444.169922 0.049143
2443.409180 0.047086
2443.315430 0.049131
2442.566406 0.052488
2442.460938 0.044848
2441.723633 0.048150
2441.606445 0.045371
2440.879883 0.046518
2440.751953 0.046961
2440.037109 0.048673
2439.897461 0.050685
2439.193359 0.052989
2439.041992 0.047472
2438.349609 0.055682
2438.186523 0.043195
2437.505859 0.051888
2437.331055 0.042118
2436.662109 0.047014
2436.475586 0.051703
2435.817383 0.051868
2435.619141 0.042631
2434.973633 0.044296
2434.763672 0.040490
2434.128906 0.049148
2433.907227 0.044741
2433.284180 0.046439
2433.050781 0.046861
2432.439453 0.044270
2432.194336 0.046317
2431.593750 0.055597
2431.336914 0.041516
2430.749023 0.050729
2430.479492 0.037249
2429.903320 0.044245
2429.622070 0.042028
2429.058594 0.049092
2428.764648 0.046273
2428.212891 0.044228
2427.907227 0.039881
2427.367188 0.044759
2427.048828 0.041998
2426.520508 0.047985
2426.191406 0.040925
2425.674805 0.042046
2425.333008 0.047291
2424.828125 0.050123
2424.473633 0.042499
2423.982422 0.048497
2423.615234 0.044082
2423.135742 0.045794
2422.755859 0.040354
2422.289063 0.044708
2421.897461 0.048838
2421.441406 0.044699
2421.038086 0.046704
2420.594727 0.041998
2420.177734 0.045631
2419.747070 0.044682
2419.318359 0.044559
2418.900391 0.039829
2418.458008 0.043488
2418.052734 0.047355
2417.597656 0.047719
2417.205078 0.042504
2416.737305 0.043997
2416.356445 0.045723
2415.876953 0.037097
2415.508789 0.047866
2415.015625 0.037088
2414.660156 0.041404
2414.155273 0.041846
2413.812500 0.049460
2413.293945 0.043954
2412.963867 0.046226
2412.115234 0.045680
2411.266602 0.046208
2410.416992 0.046736
2409.568359 0.045653
2408.718750 0.041349
2407.869141 0.041341
2407.019531 0.046164
2406.169922 0.049912
2405.319336 0.047219
2404.469727 0.043455
2403.619141 0.046664
2402.768555 0.047192
2401.917969 0.042357
2401.066406 0.043421
2400.215820 0.047700
2399.364258 0.047691
2398.513672 0.045003
2397.662109 0.047137
2396.810547 0.051412
2395.958008 0.042300
2395.106445 0.046574
2394.253906 0.047636
2393.402344 0.042275
2392.549805 0.045477
2391.697266 0.034770
2390.843750 0.045460
2389.991211 0.053472
2389.137695 0.051323
2388.284180 0.047037
2387.430664 0.044890
2386.577148 0.047018
2385.723633 0.045407
2384.869141 0.043796
2384.015625 0.048593
2383.161133 0.049117
2382.306641 0.047507
2381.452148 0.048031
2380.597656 0.047488
2379.742188 0.046945
2378.886719 0.044803
2378.032227 0.049060
2377.176758 0.047984
2376.320313 0.044777
2375.464844 0.050630
2374.609375 0.052219
2373.752930 0.044750
2372.896484 0.045274
2372.040039 0.050591
2371.183594 0.052178
2370.326172 0.046312
2369.469727 0.047368
2368.612305 0.045230
2367.754883 0.047881
2366.897461 0.044680
2366.040039 0.048926
2365.182617 0.048385
2364.324219 0.050502
2363.465820 0.042520
2362.607422 0.047294
2361.749023 0.049941
2360.890625 0.049931
2360.031250 0.045142
2359.172852 0.042478
2358.313477 0.046186
2357.454102 0.044053
2356.594727 0.048821
2355.735352 0.047750
2354.875000 0.049862
2354.015625 0.056217
2353.155273 0.047722
2352.294922 0.052484
2351.434570 0.050883
2350.573242 0.049284
2349.712891 0.050334
2348.851563 0.041848
2347.990234 0.044488
2347.128906 0.041302
2346.267578 0.043412
2345.406250 0.051872
2344.543945 0.045511
2343.681641 0.052910
2342.819336 0.051312
2341.957031 0.049187
2341.094727 0.048119
2340.232422 0.045995
2339.369141 0.044929
2338.505859 0.049148
2337.642578 0.048081
2336.779297 0.050185
2335.916016 0.048062
2335.051758 0.046997
2334.188477 0.052795
2333.324219 0.054896
2332.459961 0.049080
2331.595703 0.041683
2330.730469 0.051170
2329.866211 0.051160
2329.000977 0.052205
2328.135742 0.046395
2327.270508 0.056401
2326.405273 0.043215
2325.540039 0.059013
2324.673828 0.051099
2323.807617 0.054249
2322.941406 0.049499
2322.075195 0.059493
2321.208984 0.053691
2320.341797 0.054733
2319.475586 0.052617
2318.608398 0.050502
2317.741211 0.051544
2316.874023 0.043120
2316.005859 0.050472
2315.138672 0.048359
2314.270508 0.047824
2313.402344 0.048866
2312.534180 0.045704
2311.666016 0.043594
2310.797852 0.048311
2309.928711 0.053552
2309.059570 0.050392
2308.190430 0.048807
2307.321289 0.050896
2306.452148 0.055083
2305.582031 0.048254
2304.712891 0.050866
2303.842773 0.053477
2302.972656 0.053466
2302.102539 0.051359
2301.231445 0.044014
2300.361328 0.049243
2299.490234 0.049234
2298.619141 0.060221
2297.748047 0.052879
2296.876953 0.049727
2296.004883 0.057044
2295.133789 0.054940
2294.261719 0.057021
2293.389648 0.045503
2292.517578 0.047063
2291.645508 0.050191
2290.772461 0.050180
2289.899414 0.053306
2289.027344 0.055385
2288.153320 0.054329
2287.280273 0.058497
2286.407227 0.056919
2285.533203 0.049598
2284.660156 0.047500
2283.786133 0.051144
2282.911133 0.055308
2282.037109 0.051645
2281.163086 0.055285
2280.288086 0.056317
2279.413086 0.051614
2278.538086 0.053688
2277.663086 0.052114
2276.787109 0.054188
2275.912109 0.051572
2275.036133 0.054166
2274.160156 0.055196
2273.284180 0.046855
2272.408203 0.059338
2271.531250 0.055683
2270.655273 0.058794
2269.778320 0.058262
2268.901367 0.052009
2268.024414 0.056678
2267.146484 0.052508
2266.269531 0.051977
2265.391602 0.056644
2264.513672 0.052996
2263.635742 0.058179
2262.757813 0.052455
2261.878906 0.057637
2261.000000 0.059182
2260.122070 0.056056
2259.243164 0.053969
2258.363281 0.057071
2257.484375 0.051872
2256.604492 0.056011
2255.725586 0.066370
2254.845703 0.058062
2253.965820 0.055458
2253.084961 0.053893
2252.205078 0.053364
2251.324219 0.057497
2250.443359 0.059556
2249.562500 0.053849
2248.681641 0.056944
2247.800781 0.056932
2246.918945 0.054851
2246.037109 0.048114
2245.155273 0.052242
2244.273438 0.059472
2243.391602 0.054806
2242.509766 0.055312
2241.626953 0.054784
2240.744141 0.058390
2239.861328 0.056828
2238.978516 0.053718
2238.094727 0.055256
2237.211914 0.051114
2236.328125 0.054717
2235.444336 0.056770
2234.560547 0.054695
2233.675781 0.058295
2232.791992 0.058283
2231.907227 0.056208
2231.022461 0.056197
2230.137695 0.059278
2229.252930 0.050505
2228.368164 0.052040
2227.482422 0.052030
2226.596680 0.056655
2225.710938 0.064882
2224.825195 0.055602
2223.938477 0.060223
2223.052734 0.062784
2222.166016 0.056597
2221.279297 0.051441
2220.392578 0.061202
2219.505859 0.062218
2218.618164 0.071973
2217.731445 0.057053
2216.843750 0.057041
2215.956055 0.058057
2215.068359 0.052908
2214.179688 0.063682
2213.291016 0.051346
2212.403320 0.053389
2211.514648 0.061590
2210.625977 0.056446
2209.736328 0.060026
2208.847656 0.055910
2207.958008 0.053847
2207.068359 0.051785
2206.178711 0.049724
2205.289063 0.056377
2204.398438 0.055853
2203.507813 0.055329
2202.618164 0.061976
2201.727539 0.061451
2200.835938 0.063998
2199.945313 0.059890
2199.053711 0.060390
2198.162109 0.055772
2197.270508 0.060876
2196.378906 0.063421
2195.487305 0.059828
2194.594727 0.056749
2193.703125 0.059293
2192.810547 0.061325
2191.917969 0.063356
2191.024414 0.050061
2190.131836 0.056179
2189.238281 0.052083
2188.344727 0.060751
2187.451172 0.058697
2186.557617 0.053071
2185.664063 0.061733
2184.769531 0.062231
2183.875000 0.063238
2182.980469 0.054557
2182.085938 0.065251
2181.191406 0.062689
2180.295898 0.059619
2179.400391 0.057059
2178.504883 0.053991
2177.609375 0.062637
2176.713867 0.059569
2175.817383 0.056503
2174.921875 0.059036
2174.025391 0.061059
2173.128906 0.064098
2172.231445 0.054421
2171.334961 0.065597
2170.437500 0.060500
2169.540039 0.056929
2168.642578 0.059966
2167.745117 0.062494
2166.847656 0.060957
2165.949219 0.068055
2165.050781 0.064994
2164.152344 0.062442
2163.253906 0.056846
2162.354492 0.062924
2161.456055 0.062403
2160.556641 0.053260
2159.657227 0.062377
2158.757813 0.055266
2157.858398 0.056775
2156.958008 0.061325
2156.057617 0.062325
2155.157227 0.056740
2154.256836 0.056728
2153.356445 0.071908
2152.456055 0.061261
2151.554688 0.064791
2150.653320 0.064272
2149.751953 0.057175
2148.850586 0.061210
2147.948242 0.064737
2147.045898 0.063207
2146.144531 0.062182
2145.242188 0.062169
2144.338867 0.063167
2143.436523 0.055070
2142.533203 0.064151
2141.629883 0.067672
2140.726563 0.066144
2139.823242 0.062596
2138.919922 0.063592
2138.015625 0.065597
2137.111328 0.061548
2136.207031 0.065570
2135.302734 0.067573
2134.398438 0.057476
2133.493164 0.066537
2132.588867 0.069043
2131.683594 0.067517
2130.778320 0.064480
2129.872070 0.067488
2128.966797 0.077545
2128.060547 0.063432
2127.154297 0.067446
2126.248047 0.070954
2125.341797 0.069430
2124.434570 0.067403
2123.527344 0.070406
2122.620117 0.069889
2121.712891 0.070879
2120.805664 0.067346
2119.897461 0.070347
2118.990234 0.073849
2118.082031 0.067304
2117.173828 0.070302
2116.265625 0.069786
2115.356445 0.066759
2114.447266 0.070760
2113.539063 0.070243
2112.628906 0.072736
2111.719727 0.067204
2110.810547 0.067190
2109.900391 0.073693
2108.990234 0.076183
2108.080078 0.064642
2107.169922 0.069638
2106.258789 0.062611
2105.348633 0.059593
2104.437500 0.069093
2103.526367 0.073083
2102.615234 0.070565
2101.703125 0.065547
2100.791992 0.066534
2099.879883 0.072021
2098.967773 0.072506
2098.055664 0.061492
2097.142578 0.066977
2096.230469 0.066463
2095.317383 0.074443
2094.404297 0.069432
2093.490234 0.063424
2092.577148 0.069902
2091.663086 0.064396
2090.750000 0.061387
2089.835938 0.075845
2088.920898 0.064853
2088.006836 0.072321
2087.091797 0.066820
2086.177734 0.066806
2085.262695 0.063801
2084.346680 0.068771
2083.431641 0.069255
2082.515625 0.063761
2081.600586 0.073707
2080.684570 0.071700
2079.767578 0.069693
2078.851563 0.068683
2077.934570 0.063692
2077.017578 0.069649
2076.100586 0.072618
2075.183594 0.066635
2074.266602 0.066124
2073.348633 0.064122
2072.430664 0.070071
2071.512695 0.062603
2070.594727 0.069048
2069.676758 0.072013
2068.757813 0.071501
2067.838867 0.071982
2066.919922 0.076433
2066.000977 0.066493
2065.082031 0.068463
2064.162109 0.068944
2063.242188 0.064962
2062.322266 0.076847
2061.402344 0.066421
2060.481445 0.072850
2059.561523 0.074816
2058.640625 0.067865
2057.719727 0.075774
2056.798828 0.069816
2055.876953 0.076237
2054.956055 0.068796
2054.034180 0.081152
2053.112305 0.081629
2052.189453 0.078149
2051.267578 0.075660
2050.344727 0.077127
2049.421875 0.077110
2048.499023 0.076600
2047.576172 0.070160
2046.652344 0.073109
2045.729492 0.073093
2044.805664 0.074558
2043.881836 0.072568
2042.957031 0.075020
2042.033203 0.075497
2041.108398 0.076467
2040.183594 0.077437
2039.258789 0.078407
2038.333984 0.071487
2037.408203 0.070979
2036.483398 0.068007
2035.557617 0.071441
2034.630859 0.073396
2033.705078 0.065993
2032.778320 0.075334
2031.852539 0.073348
2030.925781 0.071429
2030.818359 0.077762
2029.999023 0.071429
2029.892578 0.074792
2029.071289 0.074372
2028.965820 0.075760
2028.144531 0.074359
2028.040039 0.080170
2027.216797 0.077793
2027.113281 0.072285
2026.289063 0.068919
2026.186523 0.081119
2025.361328 0.075306
2025.260742 0.077660
2024.432617 0.065943
2024.333008 0.083049
2023.503906 0.069376
2023.406250 0.082048
2022.576172 0.070840
2022.479492 0.073189
2021.647461 0.075255
2021.551758 0.083486
2020.717773 0.070816
2020.624023 0.070702
2019.789063 0.075229
2019.696289 0.083940
2018.859375 0.075216
2018.768555 0.076070
2017.929688 0.073729
2017.840820 0.080960
2017.000000 0.076173
2016.913086 0.079470
2016.070313 0.077143
2015.984375 0.080434
2015.139648 0.073200
2015.055664 0.078455
2014.209961 0.076625
2014.126953 0.083340
2013.279297 0.076121
2013.198242 0.079401
2012.348633 0.074144
2012.269531 0.087714
2011.416992 0.071677
2011.340820 0.082306
2010.486328 0.074118
2010.411133 0.078369
2009.554688 0.080486
2009.482422 0.082759
2008.623047 0.072621
2008.552734 0.078335
2007.691406 0.080948
2007.623047 0.073912
2006.759766 0.077991
2006.692383 0.082216
2005.827148 0.076997
2005.762695 0.075837
2004.894531 0.078945
2004.833008 0.086093
2003.961914 0.078441
2003.902344 0.070913
2003.029297 0.071075
2002.971680 0.077743
2002.096680 0.081845
2002.041016 0.076748
2001.163086 0.074970
2001.110352 0.078686
2000.229492 0.080836
2000.178711 0.081112
1999.295898 0.080822
1999.248047 0.080606
1998.362305 0.075911
1998.316406 0.078146
1997.427734 0.080305
1997.384766 0.083500
1996.494141 0.070010
1996.453125 0.080553
1995.559570 0.082724
1995.521484 0.076630
1994.625000 0.078794
1994.589844 0.076125
1993.689453 0.080249
1993.657227 0.086354
1992.754883 0.073385
1992.724609 0.084872
1991.819336 0.074351
1991.792969 0.086316
1990.883789 0.079718
1990.860352 0.081421
1989.948242 0.077748
1989.926758 0.077016
1989.012695 0.078223
1988.994141 0.081385
1988.076172 0.074788
1988.061523 0.076008
1987.139648 0.074774
1987.127930 0.077453
1986.203125 0.077693
1986.194336 0.086689
1985.266602 0.075237
1985.260742 0.078879
1984.330078 0.076689
1984.327148 0.082756
1983.392578 0.081559
1983.392578 0.088578
1982.458984 0.079103
1982.455078 0.088558
1981.524414 0.078601
1981.517578 0.080755
1980.589844 0.076147
1980.580078 0.080737
1979.655273 0.083942
1979.641602 0.086068
1978.720703 0.081487
1978.703125 0.079243
1977.786133 0.081961
1977.765625 0.080684
1976.850586 0.077556
1976.826172 0.087469
1975.915039 0.088271
1975.887695 0.082591
1974.979492 0.090206
1974.948242 0.094716
1974.043945 0.077515
1974.009766 0.088867
1973.108398 0.084813
1973.070313 0.082536
1972.172852 0.077000
1972.130859 0.084945
1971.236328 0.076986
1971.190430 0.079588
1970.299805 0.074050
1970.250000 0.079085
1969.363281 0.079881
1969.310547 0.088769
1968.426758 0.083763
1968.370117 0.081959
1967.490234 0.078392
1967.428711 0.082911
1966.553711 0.079352
1966.488281 0.084831
1965.616211 0.077877
1965.546875 0.095959
1964.678711 0.081270
1964.605469 0.091577
1963.741211 0.082715
1963.664063 0.086712
1962.803711 0.079782
1962.722656 0.082819
1961.866211 0.081226
1961.780273 0.087158
1960.928711 0.082671
1960.837891 0.089075
1959.990234 0.090435
1959.895508 0.088571
1959.051758 0.088475
1958.953125 0.079357
1958.113281 0.080196
1958.010742 0.090950
1957.174805 0.086985
1957.067383 0.085126
1956.236328 0.084054
1956.124023 0.089943
1955.296875 0.076267
1955.180664 0.085571
1954.357422 0.083052
1954.237305 0.086035
1953.418945 0.078667
1953.292969 0.091815
1952.479492 0.089334
1952.349609 0.089379
1951.539063 0.088347
1951.405273 0.085012
1950.599609 0.090272
1950.460938 0.090787
1949.660156 0.081036
1949.515625 0.086422
1948.719727 0.087814
1948.571289 0.095574
1947.779297 0.084888
1947.625977 0.090726
1946.838867 0.081477
1946.680664 0.091671
1945.898438 0.094070
1945.735352 0.088274
1944.957031 0.090174
1944.789063 0.092594
1944.016602 0.083857
1943.842773 0.092573
1943.075195 0.089172
1942.896484 0.087732
1942.133789 0.078496
1941.950195 0.089640
1941.192383 0.080904
1941.003906 0.086729
1940.250977 0.082343
1940.056641 0.089118
1939.308594 0.090076
1939.110352 0.088616
1938.366211 0.083281
1938.163086 0.089078
1937.424805 0.090043
1937.215820 0.092427
1936.482422 0.086155
1936.267578 0.092888
1935.539063 0.088075
1935.319336 0.089499
1934.596680 0.088059
1934.372070 0.092365
1933.654297 0.093847
1933.422852 0.094268
1932.710938 0.097216
1932.474609 0.086072
1931.767578 0.088977
1931.526367 0.090860
1930.824219 0.094279
1930.577148 0.099491
1929.880859 0.092329
1929.627930 0.089858
1928.936523 0.094728
1928.678711 0.091759
1927.993164 0.092295
1927.728516 0.094140
1927.048828 0.091311
1926.779297 0.095079
1926.104492 0.091295
1925.829102 0.096978
1925.160156 0.098522
1924.878906 0.089756
1924.215820 0.102850
1923.928711 0.090695
1923.270508 0.090761
1922.977539 0.097391
1922.326172 0.095572
1922.026367 0.089215
1921.380859 0.087832
1921.075195 0.093511
1920.435547 0.100844
1920.124023 0.086298
1919.490234 0.094071
1919.172852 0.087716
1918.543945 0.090195
1918.220703 0.097760
1917.598633 0.094519
1917.268555 0.098217
1916.652344 0.081483
1916.316406 0.091488
1915.706055 0.089663
1915.364258 0.087636
1914.759766 0.092057
1914.411133 0.090010
1913.813477 0.093003
1913.458984 0.094776
1912.866211 0.101658
1912.505859 0.089969
1911.919922 0.092969
1911.552734 0.098082
1910.972656 0.091507
1910.598633 0.101887
1910.025391 0.088601
1909.645508 0.094212
1909.078125 0.090510
1908.691406 0.097059
1908.129883 0.096750
1907.737305 0.098471
1907.182617 0.087589
1906.782227 0.094147
1906.234375 0.100083
1905.828125 0.098903
1905.286133 0.085632
1904.873047 0.093148
1904.337891 0.087540
1903.917969 0.090262
1903.389648 0.095218
1902.962891 0.091196
1902.440430 0.095200
1902.006836 0.092130
1901.492188 0.091336
1901.051758 0.098790
1900.542969 0.089877
1900.095703 0.094473
1899.593750 0.091783
1899.139648 0.103515
1898.644531 0.093207
1898.183594 0.103968
1897.695313 0.098954
1897.226563 0.102990
1896.745117 0.092211
1896.269531 0.104397
1895.794922 0.093635
1895.312500 0.096271
1894.844727 0.097938
1894.355469 0.092437
1893.894531 0.093600
1893.398438 0.107183
1892.944336 0.095022
1892.440430 0.100967
1891.994141 0.095004
1891.482422 0.100943
1891.042969 0.092587
1890.524414 0.094256
1890.091797 0.100244
1889.566406 0.093758
1889.140625 0.098307
1888.607422 0.092309
1888.189453 0.090138
1887.648438 0.098947
1887.238281 0.092997
1886.689453 0.094168
1886.286133 0.087228
1885.730469 0.093671
1885.334961 0.100629
1884.770508 0.094125
1884.382813 0.099652
1883.811523 0.096004
1883.430664 0.091969
1882.851563 0.097407
1882.477539 0.102967
1881.891602 0.099760
1881.525391 0.094328
1880.930664 0.092138
1880.572266 0.092874
1879.970703 0.089742
1879.619141 0.094293
1879.009766 0.092095
1878.666016 0.097625
1878.048828 0.096345
1877.712891 0.094735
1877.086914 0.100119
1876.759766 0.093282
1876.125977 0.098198
1875.805664 0.088482
1875.164063 0.090112
1874.852539 0.089900
1874.202148 0.106687
1873.898438 0.082711
1873.240234 0.109506
1872.943359 0.098948
1872.277344 0.090523
1871.989258 0.094628
1871.315430 0.102348
1871.035156 0.090309
1870.352539 0.091902
1870.080078 0.090292
1869.389648 0.098511
1869.125000 0.094574
1868.425781 0.098488
1868.169922 0.097899
1867.462891 0.097045
1867.214844 0.098357
1866.499023 0.099389
1866.258789 0.100248
1865.535156 0.102678
1865.303711 0.094502
1864.570313 0.101708
1864.347656 0.096392
1863.606445 0.099319
1863.391602 0.098759
1862.641602 0.099296
1862.435547 0.096833
1861.676758 0.089345
1861.479492 0.099676
1860.711914 0.101612
1860.522461 0.098703
1859.746094 0.098207
1859.565430 0.099226
1858.781250 0.102002
1858.608398 0.096368
1857.815430 0.101982
1857.651367 0.092567
1856.849609 0.100533
1856.694336 0.100100
1855.882813 0.094321
1855.736328 0.099133
1854.916992 0.101447
1854.779297 0.100053
1853.950195 0.098571
1853.821289 0.107107
1852.983398 0.101884
1852.863281 0.102365
1852.015625 0.109481
1851.905273 0.106113
1851.048828 0.101369
1850.946289 0.107031
1850.081055 0.105632
1849.988281 0.105121
1849.113281 0.103233
1849.029297 0.094728
1848.145508 0.103213
1848.070313 0.102715
1847.176758 0.106047
1847.111328 0.105988
1846.208008 0.103174
1846.151367 0.109731
1845.239258 0.097925
1845.192383 0.102642
1844.270508 0.101233
1844.232422 0.099794
1843.301758 0.106915
1843.272461 0.105888
1842.332031 0.105945
1842.312500 0.109156
1841.362305 0.103074
1841.352539 0.114305
1840.392578 0.106379
1840.391602 0.105813
1839.430664 0.109207
1839.422852 0.106258
1838.470703 0.103489
1838.452148 0.103412
1837.508789 0.107741
1837.481445 0.111846
1836.547852 0.103924
1836.510742 0.112760
1835.586914 0.106750
1835.540039 0.111324
1834.625000 0.105307
1834.568359 0.112236
1833.663086 0.109554
1833.597656 0.111271
1832.701172 0.114749
1832.625000 0.119224
1831.739258 0.112356
1831.653320 0.116849
1830.777344 0.113757
1830.681641 0.120105
1829.814453 0.112787
1829.708984 0.112102
1828.851563 0.115134
1828.736328 0.116765
1827.888672 0.112269
1827.763672 0.115799
1826.925781 0.113195
1826.790039 0.116240
1825.962891 0.103229
1825.817383 0.112932
1824.999023 0.111257
1824.843750 0.119933
1824.035156 0.109815
1823.869141 0.111473
1823.071289 0.114526
1822.895508 0.122217
1822.107422 0.113085
1821.920898 0.118442
1821.143555 0.108332
1820.947266 0.114669
1820.178711 0.108311
1819.971680 0.110898
1819.214844 0.112073
1818.997070 0.108533
1818.250000 0.112051
1818.021484 0.107103
1817.285156 0.100211
1817.046875 0.105675
1816.319336 0.114370
1816.070313 0.108454
1815.354492 0.109150
1815.094727 0.110765
1814.388672 0.104405
1814.119141 0.115411
1813.422852 0.107690
1813.142578 0.104172
1812.457031 0.111447
1812.166016 0.118157
1811.491211 0.114258
1811.188477 0.114393
1810.525391 0.116124
1810.211914 0.105497
1809.558594 0.109494
1809.234375 0.109205
1808.591797 0.105226
1808.256836 0.108712
1807.625000 0.108507
1807.279297 0.114749
1806.658203 0.112260
1806.300781 0.114255
1805.690430 0.106107
1805.322266 0.117957
1804.723633 0.115044
1804.343750 0.112801
1803.755859 0.112193
1803.365234 0.108580
1802.788086 0.114057
1802.386719 0.116940
1801.820313 0.112621
1801.407227 0.119706
1800.851563 0.117781
1800.427734 0.114555
1799.883789 0.110692
1799.448242 0.104284
1798.915039 0.104077
1798.467773 0.115895
1797.946289 0.118653
1797.488281 0.118659
1796.977539 0.113451
1796.507813 0.112117
1796.007813 0.112017
1795.527344 0.115810
1795.039063 0.111995
1794.545898 0.119502
1794.069336 0.110561
1793.564453 0.112035
1793.099609 0.114303
1792.583008 0.121767
1792.129883 0.122275
1791.601563 0.110122
1791.160156 0.110966
1790.620117 0.121243
1790.189453 0.114235
1789.637695 0.116105
1789.218750 0.123143
1788.655273 0.105862
1788.248047 0.103852
1787.672852 0.115120
1787.277344 0.121215
1786.690430 0.109987
1786.306641 0.116023
1785.707031 0.114135
1785.334961 0.122106
1784.723633 0.114571
1784.364258 0.120673
1783.740234 0.112688
1783.392578 0.117832
1782.756836 0.118688
1782.420898 0.122972
1781.772461 0.121439
1781.448242 0.116378
1780.788086 0.116776
1780.476563 0.126677
1779.803711 0.125086
1779.503906 0.121961
1778.819336 0.117181
1778.531250 0.124281
1777.833984 0.118078
1777.558594 0.124726
1776.848633 0.131937
1776.585938 0.120482
1775.863281 0.128202
1775.612305 0.131707
1774.877930 0.120767
1774.638672 0.127932
1773.891602 0.129064
1773.666016 0.125095
1772.905273 0.129495
1772.691406 0.121323
1771.918945 0.135011
1771.717773 0.122704
1770.931641 0.130171
1770.744141 0.121110
1769.945313 0.135295
1769.769531 0.133095
1768.958008 0.124971
1768.794922 0.121050
1767.970703 0.133369
1767.820313 0.136725
1766.982422 0.131003
1766.845703 0.129764
1765.995117 0.130041
1765.870117 0.129270
1765.006836 0.131886
1764.894531 0.132007
1764.018555 0.129054
1763.919922 0.137512
1763.029297 0.131366
1762.944336 0.135632
1762.041016 0.137416
1761.967773 0.133753
1761.051758 0.133183
1760.992188 0.130492
1760.062500 0.134558
1760.015625 0.130921
1759.072266 0.134998
1759.039063 0.145175
1758.083008 0.139174
1758.062500 0.131316
1757.092773 0.135411
1757.085938 0.133586
1756.108398 0.135384
1756.101563 0.140461
1755.131836 0.139557
1755.111328 0.133520
1754.154297 0.140929
1754.120117 0.144993
1753.176758 0.137635
1753.128906 0.130691
1752.198242 0.135275
1751.220703 0.134315
1750.242188 0.139418
1749.263672 0.135660
1748.285156 0.140760
1747.306641 0.137470
1746.327148 0.135578
1745.348633 0.138812
1744.369141 0.141112
1743.389648 0.134565
1742.409180 0.130348
1741.429688 0.133580
1740.449219 0.134484
1739.468750 0.136318
1738.488281 0.141407
1737.507813 0.136728
1736.526367 0.139490
1735.544922 0.132489
1734.563477 0.136181
1733.582031 0.136153
1732.600586 0.133803
1731.618164 0.129131
1730.636719 0.136999
1729.654297 0.137900
1728.671875 0.132766
1727.688477 0.140165
1726.706055 0.139673
1725.722656 0.143820
1724.739258 0.133586
1723.755859 0.134023
1722.771484 0.142805
1721.788086 0.138141
1720.803711 0.139967
1719.819336 0.129281
1718.834961 0.138520
1717.850586 0.138492
1716.865234 0.138464
1715.879883 0.134732
1714.894531 0.134242
1713.909180 0.143008
1712.923828 0.138814
1711.937500 0.148501
1710.951172 0.135520
1709.964844 0.140579
1708.978516 0.143325
1707.991211 0.141446
1707.004883 0.141880
1706.017578 0.136768
1705.030273 0.154295
1704.042969 0.142717
1703.054688 0.145920
1702.066406 0.141735
1701.078125 0.142168
1700.089844 0.149984
1699.101563 0.149492
1698.113281 0.153613
1697.124023 0.138823
1696.134766 0.146634
1695.145508 0.143377
1694.155273 0.145191
1693.166016 0.142857
1692.175781 0.146975
1691.185547 0.141417
1690.195313 0.150139
1689.205078 0.140438
1688.213867 0.149617
1687.222656 0.144063
1686.231445 0.135290
1685.240234 0.139863
1684.249023 0.148574
1683.256836 0.145324
1682.264648 0.144835
1681.272461 0.141587
1680.280273 0.136502
1679.287109 0.140151
1678.294922 0.136446
1677.301758 0.149279
1676.308594 0.143738
1675.315430 0.147381
1674.321289 0.138629
1673.327148 0.135388
1672.333008 0.139949
1671.338867 0.139461
1670.344727 0.145854
1669.349609 0.139404
1668.355469 0.141209
1667.360352 0.149431
1666.365234 0.142067
1665.369141 0.141580
1664.374023 0.140176
1663.377930 0.136026
1662.381836 0.130503
1661.384766 0.151535
1660.388672 0.144638
1659.391602 0.142778
1658.395508 0.147781
1657.397461 0.156899
1656.400391 0.143604
1655.403320 0.142660
1654.405273 0.145373
1653.407227 0.148999
1652.409180 0.159478
1651.411133 0.158989
1650.412109 0.147080
1649.413086 0.148419
1648.414063 0.144279
1647.415039 0.153836
1646.416016 0.148783
1645.416016 0.154684
1644.416016 0.145528
1643.416016 0.165567
1642.416016 0.159604
1641.415039 0.148173
1640.415039 0.158170
1639.414063 0.155403
1638.413086 0.159016
1637.411133 0.154428
1636.410156 0.146197
1635.408203 0.163015
1634.406250 0.160250
1633.404297 0.161127
1632.402344 0.154267
1631.399414 0.165154
1630.396484 0.153293
1629.393555 0.170543
1628.390625 0.171417
1627.387695 0.173654
1626.383789 0.172709
1625.379883 0.168583
1624.375977 0.170819
1623.372070 0.168967
1622.367188 0.171656
1621.362305 0.168896
1620.357422 0.172039
1619.352539 0.169280
1618.347656 0.168337
1617.341797 0.172384
1616.335938 0.184594
1615.330078 0.181381
1614.324219 0.166836
1613.318359 0.178133
1612.311523 0.178095
1611.304688 0.183495
1610.297852 0.175303
1609.291016 0.182060
1608.283203 0.183380
1607.275391 0.183794
1606.267578 0.190092
1605.259766 0.180097
1604.251953 0.176440
1603.243164 0.185902
1602.234375 0.193550
1601.225586 0.191701
1600.216797 0.191209
1599.207031 0.182130
1598.198242 0.190225
1597.188477 0.187926
1596.178711 0.189242
1595.167969 0.183783
1594.158203 0.194580
1593.147461 0.185963
1592.136719 0.181862
1591.125977 0.191299
1590.114258 0.188552
1589.103516 0.184002
1588.091797 0.185767
1587.080078 0.184827
1586.067383 0.179830
1585.055664 0.181594
1584.042969 0.180205
1583.030273 0.173410
1582.017578 0.180579
1581.003906 0.169285
1579.991211 0.181853
1578.977539 0.175514
1577.963867 0.183576
1576.949219 0.174540
1575.935547 0.180800
1574.920898 0.183010
1573.906250 0.175329
1572.891602 0.180236
1571.876953 0.178400
1570.861328 0.183305
1569.845703 0.181020
1568.830078 0.176491
1567.814453 0.174209
1566.797852 0.180905
1565.782227 0.177276
1564.765625 0.184867
1563.749023 0.196940
1562.731445 0.174921
1561.714844 0.183853
1560.697266 0.181124
1559.679688 0.189153
1558.662109 0.183736
1557.643555 0.172496
1556.625000 0.174699
1555.607422 0.172870
1554.587891 0.176416
1553.569336 0.179512
1552.549805 0.174550
1551.531250 0.172276
1550.511719 0.174476
1549.491211 0.170861
1548.471680 0.167694
1547.451172 0.166764
1546.430664 0.168964
1545.410156 0.166693
1544.389648 0.170232
1543.368164 0.177790
1542.346680 0.179092
1541.325195 0.168338
1540.303711 0.176337
1539.282227 0.174068
1538.259766 0.167784
1537.237305 0.164625
1536.214844 0.173511
1535.191406 0.170798
1534.168945 0.165411
1533.145508 0.168051
1532.122070 0.176037
1531.098633 0.164414
1530.074219 0.173289
1529.050781 0.172361
1528.026367 0.168762
1527.000977 0.172732
1525.976563 0.178036
1524.951172 0.169543
1523.926758 0.165948
1522.901367 0.176588
1521.875000 0.171658
1520.849609 0.164952
1519.823242 0.176919
1518.796875 0.163104
1517.770508 0.172400
1516.743164 0.168809
1515.716797 0.158558
1514.689453 0.170513
1513.662109 0.178911
1512.634766 0.172215
1511.606445 0.177059
1510.578125 0.173029
1509.549805 0.189403
1508.521484 0.192467
1507.493164 0.185775
1506.463867 0.177756
1505.434570 0.186582
1504.405273 0.192745
1503.375977 0.198019
1502.345703 0.195762
1501.315430 0.192620
1500.285156 0.189923
1499.254883 0.174833
1498.223633 0.185858
1497.193359 0.193782
1496.162109 0.197279
1495.130859 0.185296
1494.098633 0.189235
1493.067383 0.200688
1492.035156 0.195341
1491.002930 0.193531
1489.969727 0.200558
1488.937500 0.196981
1487.904297 0.196939
1486.871094 0.193364
1485.837891 0.212302
1484.803711 0.201665
1483.770508 0.205151
1482.736328 0.208635
1481.702148 0.221379
1480.666992 0.221772
1479.632813 0.221283
1478.597656 0.213303
1477.562500 0.231322
1476.527344 0.232153
1475.491211 0.228139
1474.455078 0.225447
1473.418945 0.217474
1472.382813 0.199822
1471.346680 0.217380
1470.309570 0.216453
1469.272461 0.203650
1468.235352 0.218118
1467.198242 0.198286
1466.160156 0.203958
1465.122070 0.195124
1464.083984 0.213975
1463.045898 0.197675
1462.006836 0.191483
1460.968750 0.196711
1459.929688 0.212472
1458.889648 0.199259
1457.850586 0.197899
1456.810547 0.207069
1455.771484 0.208778
1454.730469 0.208733
1453.690430 0.199042
1452.649414 0.198122
1451.609375 0.211664
1450.568359 0.209427
1449.526367 0.219018
1448.485352 0.190504
1447.443359 0.212355
1446.401367 0.210558
1445.359375 0.203947
1444.316406 0.212216
1443.274414 0.208233
1442.231445 0.220433
1441.188477 0.218636
1440.144531 0.211156
1439.101563 0.218541
1438.057617 0.214997
1437.013672 0.226309
1435.968750 0.223639
1434.924805 0.229267
1433.879883 0.234456
1432.834961 0.248810
1431.790039 0.242645
1430.744141 0.258736
1429.698242 0.270021
1428.653320 0.262112
1427.606445 0.266415
1426.560547 0.264612
1425.513672 0.281552
1424.466797 0.280619
1423.419922 0.285349
1422.373047 0.273091
1421.325195 0.286531
1420.277344 0.274713
1419.229492 0.277699
1418.181641 0.263713
1417.132813 0.274097
1416.084961 0.279256
1415.036133 0.259190
1413.986328 0.274351
1412.937500 0.278203
1411.887695 0.277707
1410.837891 0.275908
1409.788086 0.278888
1408.738281 0.292290
1407.687500 0.297436
1406.636719 0.288254
1405.585938 0.286889
1404.534180 0.282486
1403.483398 0.287196
1402.431641 0.273687
1401.379883 0.271892
1400.327148 0.251022
1399.275391 0.260069
1398.222656 0.259578
1397.169922 0.251722
1396.117188 0.262928
1395.063477 0.249445
1394.009766 0.256318
1392.956055 0.245872
1391.902344 0.238893
1390.848633 0.241004
1389.793945 0.248737
1388.739258 0.257332
1387.684570 0.269382
1386.628906 0.267593
1385.574219 0.275313
1384.518555 0.273524
1383.462891 0.266983
1382.406250 0.276858
1381.350586 0.285865
1380.293945 0.298753
1379.237305 0.316815
1378.179688 0.313292
1377.123047 0.320126
1376.065430 0.331269
1375.007813 0.331196
1373.949219 0.328535
1372.891602 0.333204
1371.833008 0.320632
1370.774414 0.331763
1369.715820 0.297659
1368.656250 0.299315
1367.596680 0.284609
1366.537109 0.260439
1365.477539 0.244457
1364.417969 0.245263
1363.357422 0.245638
1362.296875 0.235261
1361.236328 0.225319
1360.174805 0.220969
1359.113281 0.230805
1358.052734 0.215284
1356.990234 0.223829
1355.928711 0.230651
1354.866211 0.208269
1353.803711 0.215521
1352.741211 0.223628
1351.678711 0.215425
1350.615234 0.220954
1349.551758 0.236347
1348.488281 0.225144
1347.424805 0.233668
1346.360352 0.238331
1345.295898 0.247706
1344.231445 0.248936
1343.166992 0.232602
1342.101563 0.241543
1341.036133 0.233782
1339.970703 0.230733
1338.905273 0.246089
1337.838867 0.241326
1336.772461 0.257100
1335.706055 0.236941
1334.639648 0.243302
1333.572266 0.236407
1332.504883 0.246611
1331.437500 0.260657
1330.370117 0.260171
1329.302734 0.263957
1328.234375 0.265178
1327.166016 0.262557
1326.096680 0.275729
1325.028320 0.260305
1323.958984 0.264512
1322.889648 0.247391
1321.820313 0.261408
1320.750000 0.257085
1319.679688 0.252765
1318.609375 0.233957
1317.539063 0.247538
1316.468750 0.243222
1315.397461 0.243593
1314.326172 0.233320
1313.254883 0.236247
1312.182617 0.231937
1311.142578 0.228481
1311.110352 0.230940
1310.069336 0.220347
1310.038086 0.222859
1308.997070 0.217745
1308.965820 0.221968
1307.923828 0.216846
1307.892578 0.224480
1306.851563 0.211270
1306.820313 0.209987
1305.778320 0.207822
1305.747070 0.225249
1304.704102 0.214574
1304.672852 0.216286
1303.630859 0.203055
1303.599609 0.211574
1302.557617 0.217874
1302.525391 0.205589
1301.483398 0.213154
1301.451172 0.209799
1300.409180 0.211832
1300.376953 0.214857
1299.334961 0.202871
1299.301758 0.204204
1298.259766 0.212584
1298.227539 0.209261
1297.185547 0.213384
1297.152344 0.207526
1296.110352 0.216728
1296.076172 0.210883
1295.035156 0.218375
1295.000977 0.216784
1293.959961 0.220869
1293.924805 0.217593
1292.883789 0.234381
1292.848633 0.227308
1291.808594 0.231083
1291.772461 0.228396
1290.732422 0.231465
1290.695313 0.238087
1289.656250 0.235661
1289.618164 0.245657
1288.580078 0.238585
1288.541016 0.246024
1287.502930 0.252524
1287.463867 0.254435
1286.426758 0.251631
1286.386719 0.257763
1285.349609 0.254973
1285.308594 0.256858
1284.272461 0.251539
1284.230469 0.254261
1283.195313 0.239215
1283.152344 0.236438
1282.118164 0.240441
1282.073242 0.233424
1281.040039 0.234895
1280.994141 0.232102
1279.961914 0.219195
1279.915039 0.225286
1278.883789 0.224232
1278.835938 0.216361
1277.805664 0.203464
1277.755859 0.221803
1276.727539 0.208502
1276.676758 0.213727
1275.648438 0.205927
1275.596680 0.206077
1274.569336 0.208003
1274.515625 0.213629
1273.490234 0.208810
1273.435547 0.203450
1272.411133 0.203700
1272.354492 0.205513
1271.332031 0.199860
1271.273438 0.219811
1270.251953 0.202358
1270.191406 0.202466
1269.171875 0.197675
1269.110352 0.188082
1268.091797 0.206507
1268.028320 0.195206
1267.011719 0.198024
1266.946289 0.190946
1265.931641 0.194188
1265.864258 0.195538
1264.850586 0.196263
1264.781250 0.195071
1263.769531 0.191584
1263.698242 0.196711
1262.688477 0.200409
1262.615234 0.195403
1261.607422 0.195732
1261.532227 0.207567
1260.526367 0.209614
1260.448242 0.199943
1259.444336 0.199876
1259.364258 0.197372
1258.362305 0.208271
1258.280273 0.200271
1257.280273 0.206546
1257.196289 0.201908
1256.198242 0.211144
1256.111328 0.204384
1255.115234 0.196357
1255.026367 0.203496
1254.033203 0.197584
1253.941406 0.211856
1252.950195 0.197968
1252.856445 0.198359
1251.867188 0.189930
1251.770508 0.184448
1250.783203 0.195789
1250.684570 0.186926
1249.700195 0.197016
1249.598633 0.204521
1248.616211 0.203713
1248.511719 0.203214
1247.532227 0.205779
1247.425781 0.201488
1246.448242 0.201113
1246.338867 0.194727
1245.364258 0.201916
1245.250977 0.200975
1244.279297 0.210290
1244.164063 0.203026
1243.195313 0.208148
1243.076172 0.210947
1242.110352 0.209791
1241.988281 0.212156
1241.024414 0.222782
1240.900391 0.210430
1239.939453 0.214335
1239.812500 0.204514
1238.853516 0.229421
1238.723633 0.211171
1237.768555 0.208373
1237.634766 0.215310
1236.682617 0.229755
1236.544922 0.224055
1235.595703 0.221733
1235.456055 0.216466
1234.509766 0.212874
1234.366211 0.219346
1233.422852 0.238021
1233.276367 0.224317
1232.336914 0.215312
1232.186523 0.204600
1231.250000 0.221985
1231.095703 0.218775
1230.162109 0.211874
1230.004883 0.218306
1229.075195 0.217287
1228.914063 0.211565
1227.987305 0.211794
1227.823242 0.205246
1226.899414 0.209657
1226.731445 0.211884
1225.811523 0.204586
1225.639648 0.212253
1224.723633 0.205805
1224.547852 0.204267
1223.634766 0.201994
1223.456055 0.199625
1222.546875 0.203213
1222.363281 0.198326
1221.458008 0.187255
1221.270508 0.199949
1220.368164 0.202298
1220.177734 0.201154
1219.279297 0.198491
1219.084961 0.194849
1218.189453 0.211013
1217.991211 0.206066
1217.100586 0.214740
1216.897461 0.207269
1216.010742 0.210933
1215.803711 0.206386
1214.919922 0.209637
1214.708984 0.215509
1213.830078 0.217964
1213.614258 0.220459
1212.739258 0.229634
1212.519531 0.228740
1211.648438 0.234609
1211.424805 0.239517
1210.557617 0.241254
1210.329102 0.242376
1209.466797 0.242880
1209.234375 0.242319
1208.375977 0.252028
1208.138672 0.252252
1207.284180 0.243205
1207.041992 0.246367
1206.192383 0.249843
1205.946289 0.247973
1205.100586 0.252719
1204.849609 0.232940
1204.007813 0.252670
1203.752930 0.248688
1202.916016 0.239677
1202.655273 0.234909
1201.823242 0.237126
1201.558594 0.241921
1200.730469 0.247516
1200.460938 0.238955
1199.637695 0.242878
1199.362305 0.248454
1198.543945 0.239076
1198.264648 0.230534
1197.451172 0.242367
1197.166016 0.244184
1196.357422 0.242737
1196.067383 0.250769
1195.263672 0.259370
1194.968750 0.259842
1194.168945 0.245562
1193.870117 0.257291
1193.075195 0.277610
1192.770508 0.268017
1191.980469 0.264221
1191.670898 0.269198
1190.885742 0.274586
1190.570313 0.267890
1189.791016 0.285781
1189.470703 0.284825
1188.696289 0.266150
1188.370117 0.276882
1187.600586 0.271095
1187.269531 0.256926
1186.504883 0.271875
1186.167969 0.241122
1185.409180 0.240602
1185.067383 0.229053
1184.313477 0.230567
1183.965820 0.219888
1183.216797 0.223449
1182.864258 0.216938
1182.121094 0.213421
1181.761719 0.201572
1181.024414 0.188838
1180.659180 0.207317
1179.927734 0.207100
1179.556641 0.197753
1178.830078 0.198328
1178.454102 0.195638
1177.733398 0.192885
1177.351563 0.196418
1176.635742 0.191185
1176.248047 0.180248
1175.538086 0.194056
1175.144531 0.178966
1174.440430 0.188618
1174.040039 0.181402
1173.341797 0.188581
1172.936523 0.177228
1172.243164 0.187713
1171.832031 0.175534
1171.145508 0.178957
1170.727539 0.177969
1170.045898 0.181828
1169.622070 0.182881
1168.947266 0.170586
1168.517578 0.181599
1167.848633 0.185491
1167.412109 0.178254
1166.749023 0.163881
1166.306641 0.185225
1165.649414 0.170900
1165.200195 0.172395
1164.549805 0.177502
1164.093750 0.174416
1163.449219 0.175394
1162.987305 0.174786
1162.348633 0.176604
1161.880859 0.170211
1161.249023 0.183201
1160.773438 0.178411
1160.147461 0.177777
1159.666016 0.182487
1159.046875 0.174428
1158.558594 0.178737
1157.946289 0.174808
1157.451172 0.172107
1156.844727 0.171874
1156.342773 0.163009
1155.743164 0.170598
1155.234375 0.166262
1154.641602 0.171806
1154.125977 0.182269
1153.539063 0.177153
1153.017578 0.173175
1152.436523 0.179601
1151.908203 0.176012
1151.334961 0.176256
1150.798828 0.168981
1150.231445 0.166707
1149.689453 0.177572
1149.128906 0.174532
1148.579102 0.180406
1148.026367 0.179046
1147.468750 0.173789
1146.922852 0.191826
1146.358398 0.177444
1145.819336 0.177321
1145.248047 0.179454
1144.715820 0.184725
1144.136719 0.176537
1143.611328 0.174359
1143.025391 0.180189
1142.506836 0.180107
1141.914063 0.178914
1141.403320 0.178420
1140.801758 0.179281
1140.297852 0.178384
1139.689453 0.177597
1139.193359 0.186606
1138.577148 0.182885
1138.088867 0.178726
1137.464844 0.186120
1136.983398 0.190245
1136.351563 0.184846
1135.877930 0.183193
1135.239258 0.183162
1134.771484 0.177794
1134.125000 0.182298
1133.666016 0.181058
1133.011719 0.184302
1132.559570 0.181022
1131.897461 0.180981
1131.453125 0.196240
1130.783203 0.187078
1130.346680 0.176416
1129.668945 0.189488
1129.240234 0.177617
1128.553711 0.187805
1128.132813 0.184998
1127.439453 0.176306
1127.025391 0.180841
1126.324219 0.185669
1125.917969 0.189042
1125.208008 0.180718
1124.810547 0.186946
1124.092773 0.174951
1123.702148 0.179909
1122.976563 0.185125
1122.594727 0.188929
1121.859375 0.195294
1121.486328 0.190125
1120.743164 0.196063
1120.377930 0.195025
1119.625977 0.205816
1119.268555 0.195808
1118.508789 0.202092
1118.159180 0.193301
1117.391602 0.206940
1117.050781 0.197786
1116.273438 0.190159
1115.940430 0.196101
1115.155273 0.189705
1114.831055 0.214147
1114.037109 0.189658
1113.721680 0.198899
1112.918945 0.188796
1112.611328 0.203790
1111.799805 0.199350
1111.500977 0.191425
1110.680664 0.190334
1110.389648 0.188922
1109.561523 0.188250
1109.279297 0.179029
1108.441406 0.188611
1108.167969 0.183099
1107.321289 0.182049
1107.056641 0.170338
1106.201172 0.170604
1105.945313 0.170714
1105.081055 0.179110
1104.833984 0.172320
1103.959961 0.164822
1103.721680 0.177208
1102.838867 0.165595
1102.609375 0.176762
1101.717773 0.172470
1101.497070 0.170576
1100.595703 0.161854
1100.384766 0.165212
1099.473633 0.162221
1099.271484 0.163129
1098.351563 0.162587
1098.158203 0.159818
1097.229492 0.156045
1097.044922 0.161834
1096.106445 0.156413
1095.931641 0.154837
1094.983398 0.161655
1094.818359 0.166273
1093.860352 0.146184
1093.704102 0.156003
1092.737305 0.162387
1092.589844 0.156381
1091.613281 0.157476
1091.475586 0.159214
1090.489258 0.160278
1090.360352 0.152225
1089.364258 0.156181
1089.246094 0.157513
1088.240234 0.156954
1088.130859 0.153799
1087.115234 0.149616
1087.015625 0.150496
1085.989258 0.146742
1085.900391 0.157008
1084.864258 0.154000
1084.784180 0.155749
1083.738281 0.152341
1083.667969 0.152448
1082.612305 0.150683
1082.551758 0.145470
1081.486328 0.149026
1081.435547 0.147483
1080.359375 0.153847
1080.318359 0.153172
1079.232422 0.157857
1079.202148 0.150282
1078.105469 0.151747
1078.084961 0.150251
1076.977539 0.161419
1076.966797 0.153486
1075.849609 0.155717
1075.849609 0.152230
1074.731445 0.147995
1074.721680 0.151383
1073.613281 0.157660
1073.593750 0.158695
1072.495117 0.155196
1072.464844 0.155400
1071.376953 0.155776
1071.335938 0.156369
1070.257813 0.161044
1070.207031 0.155522
1069.138672 0.150821
1069.077148 0.151041
1068.019531 0.149567
1067.948242 0.155848
1066.900391 0.149944
1066.817383 0.155406
1065.781250 0.149913
1065.687500 0.162227
1064.661133 0.158028
1064.556641 0.152504
1063.541016 0.162068
1063.425781 0.163356
1062.419922 0.167734
1062.294922 0.156460
1061.299805 0.155895
1061.163086 0.154002
1060.178711 0.158712
1060.032227 0.175324
1059.057617 0.168851
1058.899414 0.176489
1057.936523 0.157020
1057.767578 0.167582
1056.815430 0.165935
1056.634766 0.166735
1055.693359 0.176066
1055.501953 0.156627
1054.571289 0.167899
1054.369141 0.171079
1053.449219 0.170710
1053.235352 0.158962
1052.327148 0.161734
1052.101563 0.167371
1051.204102 0.161701
1050.967773 0.168938
1050.081055 0.168979
1049.833984 0.161657
1048.958008 0.167726
1048.699219 0.167647
1047.834961 0.166067
1047.564453 0.173231
1046.710938 0.164815
1046.428711 0.168365
1045.586914 0.171681
1045.293945 0.172340
1044.462891 0.171645
1044.158203 0.170288
1043.338867 0.170798
1043.021484 0.170245
1042.213867 0.169140
1041.885742 0.164582
1041.089844 0.166672
1040.749023 0.171363
1039.964844 0.169881
1039.612305 0.164097
1038.838867 0.164576
1038.474609 0.164858
1037.713867 0.173053
1037.337891 0.174841
1036.587891 0.173422
1036.200195 0.176401
1035.461914 0.164879
1035.061523 0.169943
1034.335938 0.166870
1033.923828 0.162687
1033.209961 0.175339
1032.785156 0.177468
1032.083008 0.173683
1031.646484 0.164206
1030.956055 0.172028
1030.506836 0.175776
1029.829102 0.168350
1029.367188 0.166924
1028.701172 0.173979
1028.227539 0.175286
1027.574219 0.182438
1027.087891 0.170440
1026.446289 0.185636
1025.947266 0.167196
1025.318359 0.181554
1024.806641 0.177951
1024.189453 0.181516
1023.666016 0.176706
1023.061523 0.183095
1022.524414 0.164270
1021.932617 0.172550
1021.382813 0.169023
1020.803711 0.183018
1020.241211 0.169379
1019.674805 0.177729
1019.098633 0.175326
1018.544922 0.170827
1017.957031 0.166497
1017.415039 0.164734
1016.813477 0.169648
1016.285156 0.166315
1015.670898 0.160426
1015.155273 0.169912
1014.527344 0.171156
1014.024414 0.176333
1013.383789 0.178292
1012.894531 0.173472
1012.240234 0.173860
1011.763672 0.168192
1011.095703 0.165443
1010.631836 0.177432
1009.951172 0.180944
1009.500977 0.176589
1008.806641 0.180100
1008.369141 0.185823
1007.662109 0.179656
1007.237305 0.192232
1006.516602 0.185185
1006.105469 0.192997
1005.371094 0.186729
1004.972656 0.180066
1004.224609 0.179118
1003.840820 0.190097
1003.079102 0.189020
1002.708008 0.192070
1001.932617 0.201304
1001.575195 0.184381
1000.785156 0.178183
1000.441406 0.187562
999.638672 0.190861
999.307617 0.194364
998.491211 0.188427
998.173828 0.204784
997.342773 0.192352
997.040039 0.192673
996.195313 0.191905
995.906250 0.188611
995.046875 0.199004
994.771484 0.199830
993.898438 0.184260
993.636719 0.191346
992.749023 0.184212
992.501953 0.190100
991.599609 0.192499
991.367188 0.177202
990.450195 0.180147
990.231445 0.185199
989.300781 0.178514
989.095703 0.186365
987.959961 0.173074
986.824219 0.183877
985.687500 0.179022
984.550781 0.178984
983.414063 0.177743
982.277344 0.176101
981.139648 0.186892
980.001953 0.175224
978.864258 0.174786
977.726563 0.179559
976.587891 0.180723
975.449219 0.186694
974.310547 0.173036
973.171875 0.185014
972.032227 0.175766
970.893555 0.186937
969.752930 0.192100
968.613281 0.195660
967.473633 0.196019
966.333008 0.199177
965.192383 0.201534
964.050781 0.207088
962.910156 0.203846
961.768555 0.208998
960.626953 0.195370
959.485352 0.202119
958.342773 0.191692
957.200195 0.189655
956.057617 0.194804
954.915039 0.173211
953.771484 0.175568
952.628906 0.165159
951.485352 0.177089
950.340820 0.175456
949.197266 0.171033
948.052734 0.159039
946.908203 0.167374
945.762695 0.177299
944.618164 0.165709
943.472656 0.167665
942.327148 0.164842
941.181641 0.174361
940.035156 0.161189
938.888672 0.172694
937.742188 0.167486
936.595703 0.166654
935.448242 0.174572
934.301758 0.161415
933.154297 0.164162
932.005859 0.174062
930.858398 0.169654
929.709961 0.183918
928.561523 0.179510
927.413086 0.190193
926.263672 0.187770
925.114258 0.203208
923.964844 0.208323
922.815430 0.199154
921.665039 0.198714
920.514648 0.191534
919.364258 0.202197
918.213867 0.196604
917.062500 0.187844
915.911133 0.181860
914.759766 0.186574
913.608398 0.193267
912.456055 0.195601
911.303711 0.196351
910.151367 0.192746
908.999023 0.195079
907.845703 0.191081
906.692383 0.183525
905.539063 0.210770
904.385742 0.200446
903.231445 0.203960
902.077148 0.206287
900.922852 0.221256
899.768555 0.214888
898.613281 0.214842
897.458008 0.215980
896.302734 0.219881
895.146484 0.222990
893.991211 0.231229
892.834961 0.238280
891.678711 0.242961
890.521484 0.265385
889.364258 0.283857
888.207031 0.308628
887.049805 0.336146
885.892578 0.354985
884.734375 0.371846
883.576172 0.349318
882.417969 0.337430
881.258789 0.333814
880.099609 0.304618
878.940430 0.292747
877.781250 0.282455
876.621094 0.285540
875.461914 0.249302
874.301758 0.242171
873.140625 0.242119
871.980469 0.216130
870.819336 0.211762
869.658203 0.208966
868.496094 0.197139
867.334961 0.210053
866.172852 0.198624
865.010742 0.195048
863.847656 0.205992
862.685547 0.196925
861.522461 0.207863
860.359375 0.191741
859.195313 0.207380
858.031250 0.195185
856.867188 0.189265
855.703125 0.195492
854.539063 0.188007
853.374023 0.202847
852.208984 0.198887
851.043945 0.192581
849.877930 0.202322
848.711914 0.207364
847.545898 0.204189
846.379883 0.214313
845.212891 0.204100
844.046875 0.213437
842.879883 0.219644
841.711914 0.239914
840.544922 0.252362
839.376953 0.270273
838.208008 0.298719
837.040039 0.320125
835.871094 0.375870
834.702148 0.432370
833.533203 0.519276
832.364258 0.638909
831.194336 0.769798
830.024414 0.915835
828.854492 0.967867
827.683594 1.000000
826.513672 0.963935
825.342773 0.856988
824.170898 0.755542
823.000000 0.658812
821.828125 0.562125
820.656250 0.483772
819.483398 0.421019
818.311523 0.382413
817.138672 0.329044
815.965820 0.309528
814.791992 0.294687
813.619141 0.287626
812.445313 0.266189
811.270508 0.267296
810.096680 0.262576
808.921875 0.243489
807.747070 0.248483
806.572266 0.237559
805.396484 0.229745
804.221680 0.228530
803.045898 0.220334
801.869141 0.221061
800.693359 0.219849
799.516602 0.220963
798.339844 0.219751
797.162109 0.223578
795.985352 0.206483
794.807617 0.219993
793.628906 0.220718
792.451172 0.211378
791.272461 0.223717
790.093750 0.241081
788.915039 0.232516
787.735352 0.256833
786.556641 0.256776
785.375977 0.262905
784.196289 0.248158
783.015625 0.234577
781.835938 0.231048
780.654297 0.224043
779.473633 0.205456
778.291992 0.208499
777.110352 0.206523
775.928711 0.212652
774.747070 0.199872
773.564453 0.203299
772.381836 0.209810
771.199219 0.193569
770.015625 0.205091
768.832031 0.210441
767.648438 0.207312
766.464844 0.206110
765.280273 0.216463
764.095703 0.220266
762.911133 0.224067
761.725586 0.246726
760.541016 0.271300
759.355469 0.297017
758.168945 0.335031
756.983398 0.341494
755.796875 0.354490
754.610352 0.355179
753.422852 0.343955
752.236328 0.327741
751.048828 0.310381
749.861328 0.276516
748.672852 0.273766
747.485352 0.264876
746.296875 0.264433
745.107422 0.249409
743.918945 0.239763
742.729492 0.230121
741.540039 0.235437
740.349609 0.228101
739.160156 0.217701
737.969727 0.208456
736.779297 0.198448
735.587891 0.207213
734.397461 0.207167
733.206055 0.201378
732.013672 0.199419
730.822266 0.192868
729.629883 0.207746
728.437500 0.187427
727.244141 0.197710
726.051758 0.194989
724.858398 0.202208
723.665039 0.197959
722.470703 0.196386
721.276367 0.194050
720.082031 0.209664
718.887695 0.204653
717.693359 0.195446
716.498047 0.208378
715.302734 0.199173
714.106445 0.201036
712.911133 0.200228
711.714844 0.205902
710.517578 0.207762
709.321289 0.205809
708.124023 0.215670
706.926758 0.212955
705.729492 0.204527
704.531250 0.207147
703.333008 0.208242
702.134766 0.207814
700.936523 0.211192
699.737305 0.219514
698.538086 0.219845
697.338867 0.216373
696.138672 0.229250
694.938477 0.221216
693.738281 0.227246
692.538086 0.225295
691.336914 0.226764
690.135742 0.235826
688.934570 0.231217
687.732422 0.244070
686.531250 0.223902
685.328125 0.240166
684.125977 0.246939
682.923828 0.256364
681.720703 0.242656
680.516602 0.255111
679.313477 0.246336
678.109375 0.250827
676.905273 0.264407
675.701172 0.257151
674.496094 0.268452
673.291992 0.255142
672.085938 0.262274
670.880859 0.270161
669.674805 0.272747
668.468750 0.275333
667.262695 0.259389
666.055664 0.246477
664.849609 0.248311
663.642578 0.242586
662.434570 0.246687
661.227539 0.237188
660.019531 0.243931
658.810547 0.226887
657.602539 0.231365
656.393555 0.249047
655.184570 0.250499
653.975586 0.243653
652.765625 0.244729
651.555664 0.245050
650.345703 0.244994
649.134766 0.235894
647.924805 0.233580
646.712891 0.230136
645.501953 0.239875
644.291016 0.233043
643.079102 0.223956
641.866211 0.216755
640.654297 0.231754
639.441406 0.221546
638.228516 0.225255
637.015625 0.225204
635.801758 0.223649
634.587891 0.227355
633.374023 0.232563
632.160156 0.238896
630.945313 0.232081
629.730469 0.229400
628.514648 0.220338
627.299805 0.230045
626.083984 0.222488
624.868164 0.238567
623.651367 0.232137
622.435547 0.232458
621.218750 0.246274
620.000977 0.248091
618.784180 0.249533
617.566406 0.253222
616.347656 0.246797
615.129883 0.265835
613.911133 0.245935
612.692383 0.234651
611.473633 0.233474
610.253906 0.244268
609.034180 0.229253
607.814453 0.243408
606.594727 0.245595
605.374023 0.242922
604.153320 0.242493
602.931641 0.247293
601.710938 0.234538
600.489258 0.215815
599.267578 0.218378
598.044922 0.212729
596.822266 0.209322
595.599609 0.200321
594.376953 0.205869
593.153320 0.202092
591.929688 0.209501
590.706055 0.210198
589.481445 0.210522
588.257813 0.192592
587.032227 0.198134
585.807617 0.193993
584.582031 0.199532
583.356445 0.201346
582.130859 0.201300
580.905273 0.187489
579.678711 0.194512
578.452148 0.201903
577.224609 0.200369
575.997070 0.194376
574.769531 0.213653
573.541992 0.196886
572.313477 0.200926
571.084961 0.200137
569.856445 0.200462
568.627930 0.198930
567.398438 0.199997
566.168945 0.199951
564.939453 0.200646
563.708984 0.206532
562.478516 0.197958
561.248047 0.202359
560.016602 0.194901
558.785156 0.204487
557.553711 0.191847
556.322266 0.197357
555.089844 0.191758
553.857422 0.191713
552.625000 0.191668
551.391602 0.194583
550.158203 0.205263
548.924805 0.185988
547.690430 0.193707
546.457031 0.197727
545.222656 0.205441
543.987305 0.191355
542.752930 0.202390
541.517578 0.203081
540.281250 0.196758
539.045898 0.198188
537.809570 0.202201
536.573242 0.203260
535.335938 0.212432
534.099609 0.200215
532.861328 0.203486
531.624023 0.206755
530.385742 0.213338
529.148438 0.205921
527.909180 0.212502
526.670898 0.210243
525.431641 0.206144
524.192383 0.206464
522.952148 0.209726
521.712891 0.212620
520.472656 0.211099
519.231445 0.206269
517.991211 0.215411
516.750000 0.203232
515.508789 0.209798
514.266602 0.205708
513.024414 0.213739
511.782227 0.208915
510.540039 0.213638
509.296875 0.216524
508.053711 0.216839
506.810547 0.217889
505.566406 0.218571
504.322266 0.225119
503.078125 0.223599
501.833008 0.212919
500.587891 0.227157
499.342773 0.235895
498.097656 0.219726
496.851563 0.215646
495.605469 0.226576
494.359375 0.240063
493.112305 0.240006
491.865234 0.234828
490.618164 0.239161
489.370117 0.241298
488.123047 0.245261
486.874023 0.249223
485.625977 0.257932
484.376953 0.266637
483.127930 0.272051
481.878906 0.259208
480.628906 0.266812
479.378906 0.268208
478.128906 0.284196
476.877930 0.287411
475.626953 0.285155
474.375977 0.303680
473.125000 0.310532
471.873047 0.322483
470.621094 0.326778
469.368164 0.343090
468.115234 0.356481
466.862305 0.370593
465.609375 0.408720
464.355469 0.426452
463.102539 0.458363
461.847656 0.513535
460.593750 0.550500
459.338867 0.634341
458.083984 0.669806
456.828125 0.750671
455.572266 0.815152
454.316406 0.807330
453.060547 0.778090
451.803711 0.711838
450.546875 0.644892
449.290039 0.566005
448.032227 0.503841
446.774414 0.457664
445.516602 0.447402
444.257813 0.396548
442.999023 0.383045
441.740234 0.376431
440.481445 0.360403
439.221680 0.346556
437.961914 0.347197
436.701172 0.359420
435.441406 0.349563
434.180664 0.346222
432.918945 0.362777
431.658203 0.361966
430.396484 0.358625
429.133789 0.369743
427.872070 0.359898
426.609375 0.344277
425.346680 0.336971
424.083008 0.331834
422.819336 0.324534
421.555664 0.328426
420.291016 0.322573
419.027344 0.321774
417.762695 0.337204
416.497070 0.334959
415.231445 0.324064
413.965820 0.345608
412.700195 0.334355
411.433594 0.350123
410.166992 0.357601
408.900391 0.371916
407.632813 0.374345
406.365234 0.358780
405.097656 0.372005
403.830078 0.399610
402.561523 0.399873
401.291992 0.420268
400.023438 0.404351
398.753906 0.416111
397.484375 0.424631
396.214844 0.432789
394.944336 0.449560
393.673828 0.435091
392.402344 0.452212
391.130859 0.471836
389.859375 0.479613
388.587891 0.476986
387.315430 0.477586
386.042969 0.486790
384.770508 0.508531
383.497070 0.505183
382.223633 0.506492
380.950195 0.504578
379.676758 0.510898
378.402344 0.504689
377.126953 0.509933
375.852539 0.505872
374.577148 0.519340
373.301758 0.508843
372.025391 0.499423
370.749023 0.496441
369.472656 0.507754
368.196289 0.501913
366.918945 0.486433
365.641602 0.486313
364.363281 0.472629
363.085938 0.479650
361.807617 0.483814
360.528320 0.454801
359.249023 0.477513
357.969727 0.449229
356.690430 0.443415
355.410156 0.444375
354.129883 0.449253
352.849609 0.421360
351.568359 0.425529
350.287109 0.434680
349.005859 0.427455
347.723633 0.426993
346.441406 0.405543
345.159180 0.418958
343.875977 0.402498
342.592773 0.395644
341.309570 0.399100
340.026367 0.381947
338.742188 0.375103
337.457031 0.375365
336.172852 0.355745
334.887695 0.345718
333.602539 0.352375
332.316406 0.359028
331.030273 0.351845
329.744141 0.344311
328.457031 0.344934
327.170898 0.350519
325.882813 0.331653
324.595703 0.332278
323.307617 0.343174
322.019531 0.349816
320.730469 0.329198
319.441406 0.354950
318.152344 0.339648
316.863281 0.338502
315.573242 0.349733
314.283203 0.330908
312.992188 0.344256
311.701172 0.347704
310.410156 0.347970
309.119141 0.366602
307.827148 0.359095
306.535156 0.363241
305.242188 0.368443
303.950195 0.392343
302.656250 0.395772
301.363281 0.392146
300.069336 0.411086
298.775391 0.426139
297.480469 0.433784
296.186523 0.467848
294.891602 0.473013
293.595703 0.493669
292.299805 0.527691
291.003906 0.536356
289.708008 0.573166
288.411133 0.605031
287.114258 0.622814
285.816406 0.654651
284.518555 0.695962
283.220703 0.675053
281.922852 0.685422
280.624023 0.700702
279.325195 0.686128
278.025391 0.689114
276.725586 0.678410
275.425781 0.700694
274.125977 0.700516
272.825195 0.691221
271.523438 0.714886
270.222656 0.747653
268.920898 0.781805
267.619141 0.795270
266.316406 0.850407
265.013672 0.876102
263.710938 0.905285
262.408203 0.950902
261.104492 0.990198
259.799805 1.027374
258.496094 1.056838
257.191406 1.128591
255.886719 1.153818
254.581055 1.189167
253.275391 1.227292
251.969727 1.247935
250.663086 1.279390
249.356445 1.324444
248.049805 1.354119
246.742188 1.377498
245.434570 1.412375
244.126953 1.417941
242.818359 1.418972
241.509766 1.422093
240.201172 1.390366
238.891602 1.367364
237.582031 1.342284
236.271484 1.340546
234.961914 1.291118
233.650391 1.269556
232.339844 1.257052
231.028320 1.218813
229.716797 1.172597
228.405273 1.165341
227.092773 1.147314
225.779297 1.111575
224.466797 1.087318
223.153320 1.059947
221.839844 1.041965
220.525391 1.042042
219.210938 1.010540
217.896484 1.001258
216.581055 0.975678
215.265625 0.980973
213.950195 0.967545
212.633789 0.933676
211.317383 0.911258
210.000977 0.926262
208.683594 0.902818
207.366211 0.914701
206.048828 0.890234
204.730469 0.870970
203.412109 0.882159
202.092773 0.878124
200.773438 0.860261
199.454102 0.862110
198.133789 0.853591
196.814453 0.853713
195.493164 0.864197
194.172852 0.877783
192.851563 0.870649
191.529297 0.877668
190.208008 0.878818
188.885742 0.840988
187.562500 0.882150
186.239258 0.901570
184.916016 0.898231
183.592773 0.921427
182.268555 0.917050
180.944336 0.927830
179.619141 0.959262
178.293945 0.969336
176.968750 1.001085
175.643555 0.988779
174.317383 0.992645
172.990234 1.039148
171.664063 1.021341
170.336914 1.057157
169.008789 1.091580
167.680664 1.087168
166.352539 1.116757
165.024414 1.131566
163.695313 1.131609
162.366211 1.173171
161.036133 1.224316
159.706055 1.265144
158.375977 1.317951
157.044922 1.380327
155.713867 1.417654
154.382813 1.472090
153.050781 1.531976
151.718750 1.594570
150.385742 1.616736
149.053711 1.645736
147.719727 1.652480
146.386719 1.706764
145.052734 1.749735
143.717773 1.783110
142.383789 1.773746
141.048828 1.846047
139.712891 1.828473
138.377930 1.822177
137.041016 1.827832
135.705078 1.837922
134.368164 1.836404
133.031250 1.818854
131.693359 1.777782
130.355469 1.814124
129.017578 1.798297
127.678711 1.800879
126.339844 1.820492
125.000977 1.785943
123.661133 1.786142
122.321289 1.790084
120.980469 1.764758
119.639648 1.793197
118.298828 1.801554
116.957031 1.802426
115.615234 1.840349
114.273438 1.855142
112.930664 1.877061
111.587891 1.911195
110.244141 1.891660
108.900391 1.868401
107.556641 1.868232
106.211914 1.824295
104.867188 1.725434
103.522461 1.631035
102.176758 1.490583
100.831055 1.303438
99.484375 1.168572
98.137695 0.992117
