3198.529297 0.009987
3197.824219 0.017753
3197.119141 0.009984
3196.414063 0.018856
3195.708008 0.007763
3195.001953 0.014415
3194.296875 0.011087
3193.590820 0.014411
3192.884766 0.017733
3192.178711 0.016622
3191.472656 0.000000
3190.765625 0.007755
3190.059570 0.013292
3189.352539 0.004430
3188.646484 0.019931
3187.939453 0.006643
3187.232422 0.012176
3186.525391 0.005534
3185.818359 0.006640
3185.111328 0.008851
3184.404297 0.013275
3183.696289 0.005530
3182.989258 0.004424
3182.281250 0.005529
3181.573242 0.009950
3180.865234 0.012159
3180.157227 0.012157
3179.449219 0.013260
3178.741211 0.006629
3178.033203 0.013256
3177.324219 0.009940
3176.616211 0.017669
3175.907227 0.014354
3175.198242 0.012144
3174.489258 0.002208
3173.780273 0.013243
3173.071289 0.015448
3172.362305 0.012136
3171.652344 0.007722
3170.943359 0.017646
3170.233398 0.025363
3169.523438 0.011025
3168.814453 0.015433
3168.104492 0.008818
3167.394531 0.020938
3166.683594 0.008815
3165.973633 0.009915
3165.263672 0.009913
3164.552734 0.012114
3163.841797 0.013213
3163.130859 0.011009
3162.420898 0.011008
3161.709961 0.009905
3160.998047 0.009904
3160.287109 0.006601
3159.576172 0.019801
3158.864258 0.006599
3158.153320 0.009897
3157.441406 0.016493
3156.729492 0.008795
3156.017578 0.014289
3155.305664 0.008792
3154.593750 0.020877
3153.880859 0.010986
3153.168945 0.017575
3152.456055 0.004393
3151.744141 0.016471
3151.031250 0.021958
3150.318359 0.017563
3149.605469 0.019756
3148.892578 0.016460
3148.178711 0.003292
3147.465820 0.009873
3146.751953 0.017549
3146.039063 0.021933
3145.325195 0.012061
3144.611328 0.010963
3143.897461 0.023018
3143.183594 0.021918
3142.468750 0.012053
3141.754883 0.013146
3141.041016 0.028479
3140.326172 0.008761
3139.611328 0.008760
3138.896484 0.017517
3138.181641 0.006568
3137.466797 0.015322
3136.751953 0.024074
3136.037109 0.005470
3135.321289 0.010939
3134.605469 0.014218
3133.890625 0.016403
3133.174805 0.005467
3132.458984 0.017491
3131.743164 0.013116
3131.027344 0.015299
3130.310547 0.013111
3129.594727 0.005462
3128.877930 0.020753
3128.161133 0.012013
3127.445313 0.014194
3126.728516 0.013100
3126.010742 0.021830
3125.293945 0.006548
3124.577148 0.012003
3123.859375 0.005455
3123.142578 0.008726
3122.424805 0.009815
3121.707031 0.013085
3120.989258 0.013083
3120.271484 0.018531
3119.553711 0.008719
3118.835938 0.018524
3118.117188 0.021790
3117.399414 0.015250
3116.680664 0.019604
3115.961914 0.008711
3115.243164 0.015242
3114.524414 0.017417
3113.805664 0.007619
3113.086914 0.016323
3112.367188 0.005440
3111.648438 0.017405
3110.928711 0.018490
3110.208984 0.008700
3109.489258 0.021745
3108.769531 0.011958
3108.049805 0.022825
3107.329102 0.017387
3106.609375 0.011952
3105.888672 0.008691
3105.168945 0.015206
3104.448242 0.016289
3103.727539 0.011943
3103.006836 0.007599
3102.285156 0.002171
3101.564453 0.003256
3100.843750 0.011935
3100.122070 0.017357
3099.400391 0.016270
3098.678711 0.017351
3097.957031 0.027107
3097.235352 0.010841
3096.513672 0.010839
3095.791992 0.017339
3095.069336 0.018420
3094.346680 0.008667
3093.625000 0.016247
3092.902344 0.020576
3092.179688 0.010828
3091.457031 0.017321
3090.733398 0.011906
3090.010742 0.020562
3089.287109 0.016230
3088.564453 0.011900
3087.840820 0.010816
3087.117188 0.014059
3086.393555 0.014056
3085.669922 0.012973
3084.946289 0.015132
3084.221680 0.016210
3083.498047 0.016208
3082.773438 0.012964
3082.048828 0.012962
3081.324219 0.019439
3080.599609 0.017276
3079.875000 0.006477
3079.149414 0.016191
3078.424805 0.017267
3077.699219 0.012948
3076.974609 0.015103
3076.249023 0.017258
3075.523438 0.011863
3074.797852 0.018330
3074.071289 0.018327
3073.345703 0.005389
3072.619141 0.023709
3071.893555 0.014007
3071.166992 0.011850
3070.440430 0.020465
3069.713867 0.018307
3068.987305 0.018304
3068.259766 0.024760
3067.533203 0.015069
3066.805664 0.022599
3066.079102 0.016139
3065.351563 0.019364
3064.624023 0.019360
3063.896484 0.023658
3063.168945 0.018278
3062.440430 0.021500
3061.712891 0.015047
3060.984375 0.019343
3060.255859 0.008595
3059.527344 0.017188
3058.798828 0.026851
3058.070313 0.021477
3057.341797 0.012884
3056.613281 0.018249
3055.883789 0.015026
3055.154297 0.020389
3054.424805 0.021458
3053.695313 0.019309
3052.965820 0.020378
3052.236328 0.020374
3051.506836 0.019298
3050.776367 0.024655
3050.046875 0.015004
3049.316406 0.020360
3048.585938 0.021427
3047.855469 0.018210
3047.125000 0.020349
3046.393555 0.013920
3045.663086 0.019271
3044.931641 0.005352
3044.201172 0.019264
3043.469727 0.024610
3042.738281 0.010698
3042.006836 0.027810
3041.275391 0.023528
3040.542969 0.012831
3039.811523 0.014967
3039.079102 0.021377
3038.346680 0.024579
3037.614258 0.009616
3036.881836 0.014956
3036.149414 0.022430
3035.416992 0.016018
3034.683594 0.024557
3033.951172 0.020283
3033.217773 0.018144
3032.484375 0.033081
3031.750977 0.018138
3031.017578 0.023468
3030.284180 0.018131
3029.549805 0.026659
3028.816406 0.017059
3028.082031 0.026649
3027.347656 0.013855
3026.613281 0.021312
3025.878906 0.037289
3025.144531 0.027695
3024.410156 0.014910
3023.674805 0.015972
3022.939453 0.022357
3022.205078 0.025546
3021.469727 0.017028
3020.734375 0.025537
3019.999023 0.024468
3019.262695 0.018082
3018.527344 0.013825
3017.791016 0.018075
3017.054688 0.038270
3016.318359 0.025509
3015.582031 0.029755
3014.845703 0.024437
3014.109375 0.023370
3013.373047 0.024428
3012.635742 0.022300
3011.898438 0.028666
3011.161133 0.024415
3010.424805 0.024410
3009.686523 0.025467
3008.949219 0.024401
3008.211914 0.025457
3007.473633 0.013787
3006.736328 0.026508
3005.998047 0.026504
3005.259766 0.025439
3004.521484 0.030733
3003.782227 0.026489
3003.043945 0.028603
3002.305664 0.030716
3001.566406 0.019062
3000.827148 0.031763
3000.087891 0.017996
2999.348633 0.027518
2998.609375 0.030688
2997.870117 0.023276
2997.129883 0.029619
2996.389648 0.035959
2995.650391 0.047584
2994.910156 0.026430
2994.169922 0.024312
2993.429688 0.039103
2992.688477 0.028529
2991.948242 0.024298
2991.207031 0.034856
2990.465820 0.032737
2989.725586 0.033787
2988.983398 0.040115
2988.242188 0.032719
2987.500977 0.032713
2986.759766 0.039037
2986.017578 0.039030
2985.275391 0.045351
2984.533203 0.036907
2983.791016 0.039008
2983.048828 0.025298
2982.306641 0.036886
2981.563477 0.037933
2980.821289 0.037926
2980.078125 0.049505
2979.334961 0.046337
2978.591797 0.038958
2977.848633 0.043161
2977.105469 0.042101
2976.361328 0.057878
2975.618164 0.064180
2974.874023 0.053648
2974.129883 0.043121
2973.385742 0.065195
2972.641602 0.044156
2971.897461 0.056762
2971.152344 0.066210
2970.408203 0.046233
2969.663086 0.049376
2968.917969 0.067223
2968.172852 0.064060
2967.427734 0.053548
2966.682617 0.066136
2965.936523 0.065074
2965.191406 0.061913
2964.445313 0.078689
2963.699219 0.063988
2962.953125 0.059781
2962.207031 0.081790
2961.460938 0.066049
2960.713867 0.064988
2959.967773 0.092224
2959.220703 0.062868
2958.473633 0.070190
2957.726563 0.079603
2956.979492 0.085871
2956.232422 0.080620
2955.484375 0.079558
2954.737305 0.081636
2953.989258 0.088946
2953.241211 0.081606
2952.493164 0.086820
2951.745117 0.094125
2950.997070 0.092016
2950.248047 0.079453
2949.500000 0.095117
2948.750977 0.096144
2948.001953 0.092991
2947.252930 0.096108
2946.503906 0.100267
2945.754883 0.088762
2945.004883 0.090833
2944.255859 0.092904
2943.505859 0.098104
2942.755859 0.088695
2942.005859 0.098067
2941.255859 0.108479
2940.504883 0.099073
2939.754883 0.099054
2939.003906 0.087568
2938.252930 0.093805
2937.502930 0.114629
2936.750977 0.081267
2936.000000 0.088543
2935.249023 0.092693
2934.497070 0.081221
2933.746094 0.088493
2932.994141 0.096803
2932.242188 0.103029
2931.490234 0.095726
2930.738281 0.085305
2929.985352 0.081128
2929.233398 0.112310
2928.480469 0.086296
2927.727539 0.092517
2926.974609 0.081067
2926.221680 0.098716
2925.468750 0.084152
2924.715820 0.082059
2923.961914 0.085159
2923.208008 0.072683
2922.455078 0.091355
2921.701172 0.086148
2920.946289 0.076792
2920.192383 0.083003
2919.438477 0.086099
2918.683594 0.082971
2917.928711 0.091251
2917.173828 0.080866
2916.418945 0.079814
2915.664063 0.081871
2914.909180 0.084964
2914.153320 0.062157
2913.398438 0.075610
2912.642578 0.072489
2911.886719 0.088005
2911.130859 0.082812
2910.375000 0.078657
2909.619141 0.072433
2908.862305 0.074488
2908.105469 0.085852
2907.349609 0.093075
2906.592773 0.079615
2905.835938 0.078566
2905.078125 0.076484
2904.321289 0.080603
2903.563477 0.089886
2902.806641 0.082638
2902.048828 0.073327
2901.291016 0.085704
2900.533203 0.091882
2899.774414 0.088767
2899.016602 0.092878
2898.257813 0.089765
2897.500000 0.105221
2896.741211 0.079417
2895.982422 0.084557
2895.222656 0.078355
2894.463867 0.092771
2893.705078 0.081417
2892.945313 0.081401
2892.185547 0.084476
2891.425781 0.073130
2890.666016 0.068996
2889.906250 0.077220
2889.146484 0.080293
2888.385742 0.085423
2887.625000 0.083349
2886.864258 0.086419
2886.103516 0.086403
2885.342773 0.089471
2884.582031 0.075059
2883.821289 0.071960
2883.059570 0.083252
2882.297852 0.079126
2881.536133 0.088357
2880.774414 0.069850
2880.012695 0.092431
2879.250977 0.084199
2878.488281 0.087262
2877.726563 0.084166
2876.963867 0.086202
2876.201172 0.085159
2875.438477 0.086169
2874.674805 0.090254
2873.912109 0.095364
2873.149414 0.083043
2872.385742 0.079952
2871.622070 0.086085
2870.858398 0.084019
2870.094727 0.082978
2869.330078 0.089108
2868.566406 0.094210
2867.801758 0.086001
2867.038086 0.095197
2866.273438 0.079827
2865.508789 0.098230
2864.743164 0.082865
2863.978516 0.087964
2863.212891 0.085901
2862.448242 0.085884
2861.682617 0.080756
2860.916992 0.082785
2860.151367 0.084812
2859.384766 0.087861
2858.619141 0.083758
2857.852539 0.085784
2857.086914 0.095978
2856.320313 0.101063
2855.553711 0.076548
2854.786133 0.084697
2854.019531 0.084680
2853.251953 0.086704
2852.485352 0.094845
2851.717773 0.089729
2850.950195 0.093789
2850.182617 0.079501
2849.414063 0.079485
2848.646484 0.085583
2847.877930 0.084548
2847.110352 0.086568
2846.341797 0.095715
2845.573242 0.071263
2844.803711 0.081428
2844.035156 0.089553
2843.266602 0.085466
2842.497070 0.086466
2841.727539 0.094586
2840.958008 0.071180
2840.188477 0.079299
2839.418945 0.083349
2838.648438 0.075203
2837.878906 0.079252
2837.108398 0.084316
2836.337891 0.078205
2835.567383 0.080221
2834.795898 0.089342
2834.025391 0.071054
2833.254883 0.079159
2832.483398 0.076099
2831.711914 0.073041
2830.940430 0.085198
2830.168945 0.065914
2829.397461 0.076039
2828.625000 0.069942
2827.852539 0.087157
2827.081055 0.068902
2826.308594 0.078005
2825.536133 0.081029
2824.762695 0.064810
2823.990234 0.078972
2823.216797 0.079968
2822.444336 0.081977
2821.670898 0.075889
2820.897461 0.068793
2820.123047 0.075859
2819.349609 0.058653
2818.576172 0.068752
2817.801758 0.087945
2817.027344 0.070746
2816.252930 0.080837
2815.478516 0.078800
2814.704102 0.057573
2813.928711 0.081799
2813.154297 0.072696
2812.378906 0.070662
2811.603516 0.069639
2810.828125 0.067607
2810.052734 0.074656
2809.276367 0.082710
2808.500977 0.067567
2807.724609 0.076628
2806.948242 0.063508
2806.171875 0.065511
2805.395508 0.058444
2804.619141 0.081604
2803.841797 0.074537
2803.064453 0.065459
2802.288086 0.070480
2801.510742 0.073486
2800.733398 0.077498
2799.955078 0.074463
2799.177734 0.070424
2798.399414 0.063369
2797.621094 0.050283
2796.842773 0.072393
2796.064453 0.066347
2795.286133 0.065329
2794.507813 0.061297
2793.728516 0.060280
2792.950195 0.062277
2792.170898 0.065277
2791.391602 0.062252
2790.611328 0.058224
2789.832031 0.068249
2789.052734 0.052180
2788.272461 0.057186
2787.492188 0.063193
2786.711914 0.055157
2785.931641 0.055146
2785.151367 0.054133
2784.370117 0.062140
2783.588867 0.066136
2782.808594 0.055102
2782.027344 0.059098
2781.246094 0.051074
2780.463867 0.070088
2779.682617 0.058061
2778.900391 0.058050
2778.119141 0.058038
2777.336914 0.063029
2776.554688 0.062016
2775.771484 0.052003
2774.989258 0.054992
2774.206055 0.046984
2773.423828 0.053970
2772.640625 0.053960
2771.857422 0.050952
2771.074219 0.069920
2770.290039 0.059919
2769.506836 0.056912
2768.722656 0.055902
2767.938477 0.064873
2767.154297 0.058873
2766.370117 0.059859
2765.585938 0.056855
2764.800781 0.060832
2764.016602 0.044867
2763.231445 0.053830
2762.446289 0.054816
2761.661133 0.068755
2760.875000 0.059775
2760.089844 0.057771
2759.303711 0.061742
2758.518555 0.054760
2757.732422 0.057736
2756.945313 0.061705
2756.159180 0.054727
2755.373047 0.055711
2754.585938 0.061668
2753.798828 0.046739
2753.012695 0.067608
2752.224609 0.049702
2751.437500 0.063606
2750.650391 0.053656
2749.862305 0.064573
2749.074219 0.065553
2748.287109 0.066533
2747.499023 0.063541
2746.709961 0.058565
2745.921875 0.063516
2745.132813 0.056557
2744.344727 0.059522
2743.555664 0.053559
2742.766602 0.061481
2741.977539 0.059486
2741.187500 0.052535
2740.398438 0.059461
2739.608398 0.054495
2738.818359 0.064390
2738.028320 0.066358
2737.238281 0.061394
2736.448242 0.052471
2735.657227 0.061369
2734.866211 0.051460
2734.075195 0.054418
2733.284180 0.057374
2732.493164 0.059341
2731.702148 0.056362
2730.910156 0.058328
2730.119141 0.046455
2729.327148 0.064234
2728.535156 0.051376
2727.743164 0.057293
2726.950195 0.063207
2726.158203 0.064181
2725.365234 0.053309
2724.572266 0.052311
2723.779297 0.054274
2722.986328 0.051303
2722.193359 0.058197
2721.399414 0.057199
2720.606445 0.059160
2719.812500 0.056190
2719.018555 0.063078
2718.224609 0.064050
2717.430664 0.059111
2716.635742 0.063039
2715.840820 0.050224
2715.046875 0.050214
2714.251953 0.059063
2713.456055 0.059051
2712.661133 0.055103
2711.866211 0.046238
2711.070313 0.061965
2710.274414 0.052119
2709.478516 0.064890
2708.682617 0.055046
2707.886719 0.053070
2707.089844 0.061902
2706.293945 0.051083
2705.497070 0.046162
2704.700195 0.046152
2703.903320 0.054979
2703.105469 0.054967
2702.308594 0.052993
2701.510742 0.050039
2700.712891 0.056895
2699.915039 0.058845
2699.117188 0.050008
2698.319336 0.043135
2697.520508 0.057829
2696.722656 0.061737
2695.923828 0.061724
2695.125000 0.046039
2694.326172 0.056802
2693.526367 0.058748
2692.727539 0.051884
2691.927734 0.063618
2691.127930 0.054798
2690.328125 0.051852
2689.528320 0.066513
2688.728516 0.053786
2687.927734 0.055730
2687.126953 0.053764
2686.326172 0.049843
2685.525391 0.055696
2684.724609 0.055684
2683.923828 0.052743
2683.122070 0.051755
2682.321289 0.051744
2681.519531 0.057590
2680.717773 0.056603
2679.915039 0.056591
2679.113281 0.062432
2678.310547 0.053641
2677.508789 0.061431
2676.706055 0.055569
2675.903320 0.058481
2675.099609 0.068214
2674.296875 0.060406
2673.493164 0.042860
2672.690430 0.051616
2671.886719 0.053552
2671.083008 0.048674
2670.278320 0.042824
2669.474609 0.053519
2668.669922 0.066155
2667.865234 0.059333
2667.060547 0.049596
2666.255859 0.059308
2665.451172 0.062212
2664.646484 0.054424
2663.840820 0.058299
2663.035156 0.044687
2662.229492 0.055361
2661.423828 0.062147
2660.618164 0.051455
2659.811523 0.053385
2659.004883 0.048522
2658.199219 0.059184
2657.391602 0.063052
2656.584961 0.055280
2655.778320 0.066904
2655.033203 0.050520
2654.970703 0.070768
2654.227539 0.056350
2654.164063 0.056215
2653.421875 0.060226
2653.356445 0.044575
2652.616211 0.048562
2652.548828 0.059097
2651.810547 0.059236
2651.740234 0.056179
2651.004883 0.062139
2650.932617 0.050357
2650.198242 0.054363
2650.124023 0.066806
2649.392578 0.057266
2649.316406 0.064856
2648.585938 0.060168
2648.507813 0.060003
2647.779297 0.059188
2647.699219 0.045477
2646.972656 0.056268
2646.889648 0.058043
2646.166016 0.045589
2646.081055 0.059965
2645.359375 0.059159
2645.271484 0.066722
2644.552734 0.059149
2644.461914 0.053173
2643.745117 0.057201
2643.652344 0.057994
2642.938477 0.063977
2642.842773 0.060881
2642.130859 0.067843
2642.033203 0.067632
2641.323242 0.044575
2641.222656 0.053128
2640.515625 0.051350
2640.413086 0.052151
2639.708008 0.060060
2639.602539 0.061796
2638.899414 0.049396
2638.791992 0.045372
2638.091797 0.061009
2637.981445 0.061770
2637.283203 0.060031
2637.169922 0.060792
2636.475586 0.054212
2636.359375 0.045343
2635.666992 0.062915
2635.547852 0.056908
2634.858398 0.057098
2634.736328 0.062682
2634.049805 0.064829
2633.924805 0.050135
2633.241211 0.059014
2633.113281 0.057836
2632.431641 0.060939
2632.300781 0.067461
2631.623047 0.062863
2631.489258 0.062629
2630.813477 0.055117
2630.676758 0.066469
2630.003906 0.063809
2629.864258 0.069344
2629.194336 0.052198
2629.051758 0.060663
2628.384766 0.057989
2628.238281 0.059688
2627.575195 0.060878
2627.425781 0.054862
2626.765625 0.066665
2626.612305 0.071210
2625.955078 0.056028
2625.798828 0.056763
2625.145508 0.073404
2624.985352 0.071180
2624.334961 0.056009
2624.171875 0.059624
2623.524414 0.064689
2623.358398 0.064419
2622.713867 0.067575
2622.543945 0.070173
2621.903320 0.075285
2621.729492 0.066314
2621.092773 0.057902
2620.916016 0.060534
2620.281250 0.060787
2620.100586 0.077813
2619.469727 0.059812
2619.286133 0.063390
2618.659180 0.066554
2618.471680 0.051854
2617.847656 0.059792
2617.656250 0.059523
2617.036133 0.062675
2616.840820 0.062390
2616.224609 0.071341
2616.025391 0.072932
2615.412109 0.060726
2615.209961 0.055647
2614.600586 0.073244
2614.394531 0.066187
2613.788086 0.061669
2613.578125 0.057541
2612.976563 0.055878
2612.762695 0.066158
2612.164063 0.055869
2611.946289 0.066144
2611.351563 0.061638
2611.129883 0.061338
2610.539063 0.072219
2610.312500 0.060367
2609.726563 0.067393
2609.496094 0.065144
2608.913086 0.064494
2608.678711 0.058425
2608.100586 0.067371
2607.862305 0.069904
2607.287109 0.059661
2607.044922 0.040210
2606.473633 0.060613
2606.227539 0.067003
2605.660156 0.058679
2605.409180 0.057418
2604.846680 0.051936
2604.591797 0.057406
2604.033203 0.050966
2603.773438 0.059307
2603.218750 0.059610
2602.955078 0.069814
2602.405273 0.065368
2602.136719 0.055457
2601.590820 0.063435
2601.318359 0.051621
2600.776367 0.060541
2600.500000 0.064991
2599.961914 0.060531
2599.680664 0.066888
2599.147461 0.067245
2598.861328 0.062097
2598.333008 0.058589
2598.042969 0.062083
2597.518555 0.065301
2597.222656 0.069709
2596.703125 0.056649
2596.403320 0.071604
2595.888672 0.064319
2595.583984 0.062043
2595.073242 0.060469
2594.763672 0.052487
2594.257813 0.062378
2593.943359 0.048659
2593.442383 0.074840
2593.123047 0.056280
2592.625977 0.072909
2592.302734 0.061990
2591.810547 0.048917
2591.482422 0.075325
2590.994141 0.070007
2590.661133 0.061010
2590.178711 0.063283
2589.839844 0.050513
2589.362305 0.061355
2589.018555 0.058125
2588.545898 0.059427
2588.197266 0.056207
2587.729492 0.048875
2587.375977 0.064767
2586.913086 0.058448
2586.554688 0.057135
2586.095703 0.067060
2585.732422 0.066643
2585.279297 0.062260
2584.910156 0.059014
2584.461914 0.063206
2584.087891 0.065662
2583.644531 0.066068
2583.265625 0.062794
2582.827148 0.057441
2582.443359 0.064683
2582.009766 0.062216
2581.620117 0.049453
2581.192383 0.066991
2580.796875 0.065605
2580.374023 0.066979
2579.973633 0.059888
2579.556641 0.057401
2579.150391 0.072230
2578.738281 0.068869
2578.327148 0.059862
2577.919922 0.070770
2577.503906 0.055099
2577.101563 0.058327
2576.679688 0.065534
2576.283203 0.072657
2575.855469 0.064570
2575.464844 0.064042
2575.031250 0.059810
2574.645508 0.066898
2574.207031 0.056949
2573.827148 0.058286
2573.381836 0.061681
2573.007813 0.062098
2572.557617 0.055027
2572.188477 0.064952
2571.732422 0.058809
2571.369141 0.065896
2570.907227 0.061641
2570.549805 0.052517
2570.082031 0.058783
2569.730469 0.064918
2569.256836 0.062562
2568.910156 0.070634
2568.430664 0.073921
2568.090820 0.062987
2567.605469 0.055902
2567.270508 0.065838
2566.779297 0.081467
2566.450195 0.072505
2565.953125 0.054931
2565.629883 0.057230
2565.125977 0.063441
2564.809570 0.065804
2564.299805 0.049227
2563.989258 0.069606
2563.472656 0.053002
2563.167969 0.073407
2562.646484 0.064345
2562.346680 0.069581
2561.819336 0.077576
2561.526367 0.066710
2560.992188 0.076613
2560.705078 0.069557
2560.164063 0.062412
2559.883789 0.078119
2559.336914 0.068071
2559.061523 0.063817
2558.508789 0.067110
2558.240234 0.063806
2557.680664 0.067096
2557.417969 0.068556
2556.852539 0.064247
2556.596680 0.063784
2556.024414 0.063288
2555.774414 0.079953
2555.195313 0.059496
2554.952148 0.068519
2554.367188 0.067037
2554.129883 0.074216
2553.538086 0.067022
2553.307617 0.059933
2552.708984 0.061345
2552.484375 0.074190
2551.878906 0.063218
2551.662109 0.055157
2551.049805 0.061318
2550.838867 0.065606
2550.219727 0.063190
2550.015625 0.066545
2549.390625 0.057519
2549.192383 0.066533
2548.560547 0.056563
2548.369141 0.061770
2547.730469 0.062206
2547.544922 0.067460
2546.899414 0.060308
2546.721680 0.055098
2546.069336 0.065947
2545.897461 0.056038
2545.238281 0.062165
2545.074219 0.065524
2544.407227 0.073451
2544.250000 0.055069
2543.576172 0.062137
2543.425781 0.066450
2542.745117 0.052711
2542.600586 0.064540
2541.913086 0.063992
2541.776367 0.058835
2541.082031 0.071504
2540.951172 0.065466
2540.250000 0.070548
2540.126953 0.067351
2539.417969 0.064890
2539.301758 0.062597
2538.585938 0.063935
2538.476563 0.072069
2537.752930 0.068621
2537.651367 0.080589
2536.920898 0.062967
2536.826172 0.077730
2536.087891 0.065771
2536.000000 0.070134
2535.254883 0.064817
2535.174805 0.063489
2534.421875 0.061985
2534.348633 0.065372
2533.587891 0.076056
2533.522461 0.066307
2532.754883 0.073223
2532.696289 0.063454
2531.920898 0.057251
2531.870117 0.066284
2531.086914 0.064745
2531.042969 0.066272
2530.252930 0.075050
2530.216797 0.070046
2529.418945 0.062841
2529.389648 0.059623
2528.583984 0.063764
2528.562500 0.065290
2527.749023 0.072187
2527.735352 0.078523
2526.914063 0.064673
2526.908203 0.070941
2526.081055 0.059036
2526.079102 0.057688
2525.253906 0.075886
2525.244141 0.072807
2524.425781 0.065566
2524.409180 0.079411
2523.597656 0.067424
2523.573242 0.075616
2522.769531 0.074657
2522.737305 0.070218
2521.941406 0.069919
2521.901367 0.066458
2521.113281 0.073685
2521.065430 0.067379
2520.285156 0.078395
2520.228516 0.056137
2519.456055 0.064215
2519.392578 0.070155
2518.627930 0.076478
2518.555664 0.063593
2517.798828 0.063248
2517.718750 0.076668
2516.969727 0.071731
2516.881836 0.057956
2516.140625 0.069831
2516.043945 0.071026
2515.311523 0.077366
2515.207031 0.073813
2514.481445 0.071692
2514.369141 0.064455
2513.651367 0.072622
2513.531250 0.077516
2512.822266 0.067894
2512.693359 0.077498
2511.992188 0.080138
2511.855469 0.075614
2511.162109 0.080123
2511.016602 0.072797
2510.332031 0.085763
2510.177734 0.069048
2509.500977 0.078209
2509.338867 0.074630
2508.670898 0.083848
2508.500000 0.081141
2507.839844 0.080065
2507.661133 0.072731
2507.008789 0.064982
2506.821289 0.080172
2506.177734 0.077210
2505.982422 0.066174
2505.346680 0.072489
2505.142578 0.068023
2504.515625 0.077182
2504.302734 0.065212
2503.683594 0.085638
2503.461914 0.074511
2502.852539 0.074331
2502.622070 0.082875
2502.020508 0.072436
2501.781250 0.091235
2501.188477 0.069601
2500.940430 0.077253
2500.356445 0.086515
2500.099609 0.070722
2499.524414 0.066755
2499.258789 0.084660
2498.691406 0.076143
2498.416992 0.070689
2497.859375 0.075189
2497.576172 0.078112
2497.026367 0.077994
2496.734375 0.082743
2496.193359 0.083617
2495.892578 0.080865
2495.360352 0.079844
2495.050781 0.081776
2494.527344 0.074194
2494.208008 0.078970
2493.694336 0.070425
2493.365234 0.088241
2492.860352 0.076984
2492.523438 0.076148
2492.027344 0.083540
2491.680664 0.081701
2491.193359 0.086340
2490.836914 0.071472
2490.359375 0.087262
2489.994141 0.081664
2489.525391 0.076927
2489.150391 0.081645
2488.691406 0.084416
2488.306641 0.085337
2487.856445 0.077836
2487.462891 0.079753
2487.022461 0.084385
2486.619141 0.091788
2486.187500 0.088119
2485.775391 0.071374
2485.352539 0.079667
2484.930664 0.094526
2484.517578 0.089960
2484.085938 0.084312
2483.682617 0.075890
2483.241211 0.069472
2482.846680 0.078686
2482.396484 0.073161
2482.011719 0.081481
2481.550781 0.076847
2481.175781 0.088957
2480.706055 0.077755
2480.339844 0.085196
2479.860352 0.086066
2479.503906 0.090796
2479.014648 0.087897
2478.667969 0.078613
2478.168945 0.085101
2477.832031 0.081406
2477.322266 0.075834
2476.995117 0.097294
2476.476563 0.075816
2476.158203 0.081375
2475.629883 0.080421
2475.322266 0.091647
2474.783203 0.072085
2474.485352 0.072930
2473.936523 0.081307
2473.647461 0.078525
2473.088867 0.082212
2472.810547 0.095334
2472.242188 0.084040
2471.973633 0.072889
2471.394531 0.080327
2471.135742 0.079416
2470.546875 0.084001
2470.297852 0.100886
2469.698242 0.080290
2469.459961 0.090593
2468.850586 0.075658
2468.622070 0.098047
2468.001953 0.083943
2467.784180 0.085891
2467.153320 0.083923
2466.946289 0.078408
2466.304688 0.074683
2466.107422 0.090525
2465.456055 0.078353
2465.268555 0.078378
2464.607422 0.084786
2464.429688 0.088626
2463.757813 0.078317
2463.590820 0.089542
2462.908203 0.072771
2462.751953 0.087660
2462.058594 0.084727
2461.913086 0.087643
2461.208984 0.074579
2461.073242 0.081102
2460.358398 0.081926
2460.233398 0.082950
2459.508789 0.073624
2459.394531 0.091321
2458.658203 0.062565
2458.554688 0.077329
2457.807617 0.078189
2457.713867 0.091287
2456.956055 0.075411
2456.874023 0.080094
2456.105469 0.078152
2456.033203 0.090322
2455.253906 0.079972
2455.193359 0.080064
2454.402344 0.075358
2454.352539 0.087495
2453.550781 0.076259
2453.511719 0.085617
2452.699219 0.086346
2452.670898 0.080949
2451.846680 0.079897
2451.829102 0.079073
2450.995117 0.073451
2450.988281 0.071617
2450.146484 0.073434
2450.142578 0.077183
2449.304688 0.078005
2449.290039 0.078099
2448.462891 0.077987
2448.436523 0.073436
2447.621094 0.077140
2447.583984 0.075216
2446.779297 0.070621
2446.730469 0.073364
2445.937500 0.073394
2445.876953 0.068763
2445.094727 0.079883
2445.023438 0.080663
2444.251953 0.073367
2444.169922 0.060483
2443.409180 0.081709
2443.315430 0.069630
2442.566406 0.075195
2442.460938 0.085185
2441.723633 0.075181
2441.606445 0.072345
2440.879883 0.053823
2440.751953 0.079652
2440.037109 0.089070
2439.897461 0.077802
2439.193359 0.071428
2439.041992 0.074123
2438.349609 0.074197
2438.186523 0.081425
2437.505859 0.075110
2437.331055 0.073173
2436.662109 0.082512
2436.475586 0.069498
2435.817383 0.070447
2435.619141 0.075881
2434.973633 0.075994
2434.763672 0.067637
2434.128906 0.069493
2433.907227 0.068535
2433.284180 0.058363
2433.050781 0.055728
2432.439453 0.080581
2432.194336 0.081289
2431.593750 0.077788
2431.336914 0.076704
2430.749023 0.072218
2430.479492 0.068469
2429.903320 0.083313
2429.622070 0.061151
2429.058594 0.095328
2428.764648 0.072086
2428.212891 0.072177
2427.907227 0.059297
2427.367188 0.064762
2427.048828 0.065667
2426.520508 0.063824
2426.191406 0.070211
2425.674805 0.084158
2425.333008 0.069282
2424.828125 0.076745
2424.473633 0.068354
2423.982422 0.068410
2423.615234 0.067427
2423.135742 0.074867
2422.755859 0.071054
2422.289063 0.069308
2421.897461 0.075591
2421.441406 0.068371
2421.038086 0.065557
2420.594727 0.068358
2420.177734 0.073734
2419.747070 0.073886
2419.318359 0.056425
2418.900391 0.060021
2418.458008 0.080977
2418.052734 0.072011
2417.597656 0.064584
2417.205078 0.057229
2416.737305 0.056384
2416.356445 0.083981
2415.876953 0.069099
2415.508789 0.076583
2415.015625 0.073627
2414.660156 0.085794
2414.155273 0.077244
2413.812500 0.076554
2413.293945 0.059055
2412.963867 0.072850
2412.115234 0.082056
2411.266602 0.074666
2410.416992 0.061749
2409.568359 0.074637
2408.718750 0.066331
2407.869141 0.071845
2407.019531 0.070911
2406.169922 0.067214
2405.319336 0.073645
2404.469727 0.078233
2403.619141 0.067175
2402.768555 0.076362
2401.917969 0.076348
2401.066406 0.081851
2400.215820 0.068962
2399.364258 0.072626
2398.513672 0.082723
2397.662109 0.068003
2396.810547 0.057883
2395.958008 0.064303
2395.106445 0.075311
2394.253906 0.076215
2393.402344 0.085381
2392.549805 0.078939
2391.697266 0.066993
2390.843750 0.066980
2389.991211 0.070637
2389.137695 0.072458
2388.284180 0.063273
2387.430664 0.081598
2386.577148 0.071499
2385.723633 0.071485
2384.869141 0.079718
2384.015625 0.066877
2383.161133 0.075107
2382.306641 0.064103
2381.452148 0.078740
2380.597656 0.079640
2379.742188 0.067727
2378.886719 0.086014
2378.032227 0.075019
2377.176758 0.059455
2376.320313 0.088708
2375.464844 0.074061
2374.609375 0.072218
2373.752930 0.073118
2372.896484 0.078587
2372.040039 0.085880
2371.183594 0.083123
2370.326172 0.074888
2369.469727 0.071221
2368.612305 0.067555
2367.754883 0.066629
2366.897461 0.085780
2366.040039 0.072077
2365.182617 0.078449
2364.324219 0.075697
2363.465820 0.073859
2362.607422 0.074756
2361.749023 0.074741
2360.890625 0.076549
2360.031250 0.071979
2359.172852 0.080163
2358.313477 0.069218
2357.454102 0.078310
2356.594727 0.069191
2355.735352 0.068267
2354.875000 0.072804
2354.015625 0.070060
2353.155273 0.070956
2352.294922 0.080947
2351.434570 0.078203
2350.573242 0.083642
2349.712891 0.073627
2348.851563 0.069068
2347.990234 0.079050
2347.128906 0.078126
2346.267578 0.069936
2345.406250 0.090808
2344.543945 0.053566
2343.681641 0.085326
2342.819336 0.092569
2341.957031 0.083477
2341.094727 0.075296
2340.232422 0.082537
2339.369141 0.080708
2338.505859 0.084318
2337.642578 0.083395
2336.779297 0.085191
2335.916016 0.079738
2335.051758 0.076098
2334.188477 0.091481
2333.324219 0.087840
2332.459961 0.078769
2331.595703 0.078754
2330.730469 0.088693
2329.866211 0.076008
2329.000977 0.078707
2328.135742 0.075978
2327.270508 0.078676
2326.405273 0.077756
2325.540039 0.082260
2324.673828 0.079533
2323.807617 0.080420
2322.941406 0.078598
2322.075195 0.084001
2321.208984 0.085791
2320.341797 0.094803
2319.475586 0.094784
2318.608398 0.092960
2317.741211 0.089332
2316.874023 0.073977
2316.005859 0.076669
2315.138672 0.081162
2314.270508 0.079343
2313.402344 0.089243
2312.534180 0.078410
2311.666016 0.070285
2310.797852 0.075676
2309.928711 0.073860
2309.059570 0.063038
2308.190430 0.080133
2307.321289 0.085518
2306.452148 0.076501
2305.582031 0.080985
2304.712891 0.073771
2303.842773 0.075555
2302.972656 0.063850
2302.102539 0.075525
2301.231445 0.085398
2300.361328 0.080887
2299.490234 0.088958
2298.619141 0.070973
2297.748047 0.083534
2296.876953 0.072740
2296.004883 0.070032
2295.133789 0.069121
2294.261719 0.091544
2293.389648 0.085245
2292.517578 0.078948
2291.645508 0.084313
2290.772461 0.075329
2289.899414 0.078003
2289.027344 0.084263
2288.153320 0.082453
2287.280273 0.091397
2286.407227 0.075253
2285.533203 0.081508
2284.660156 0.074327
2283.786133 0.090428
2282.911133 0.090410
2282.037109 0.088602
2281.163086 0.078742
2280.288086 0.087672
2279.413086 0.079604
2278.538086 0.082271
2277.663086 0.083149
2276.787109 0.075981
2275.912109 0.083115
2275.036133 0.085779
2274.160156 0.091122
2273.284180 0.085744
2272.408203 0.079476
2271.531250 0.083031
2270.655273 0.091941
2269.778320 0.081213
2268.901367 0.088335
2268.024414 0.090993
2267.146484 0.070461
2266.269531 0.087389
2265.391602 0.083806
2264.513672 0.094485
2263.635742 0.095357
2262.757813 0.071281
2261.878906 0.089083
2261.000000 0.081049
2260.122070 0.087266
2259.243164 0.117518
2258.363281 0.090791
2257.484375 0.097892
2256.604492 0.078298
2255.725586 0.085398
2254.845703 0.089828
2253.965820 0.098702
2253.084961 0.094237
2252.205078 0.079996
2251.324219 0.076425
2250.443359 0.079075
2249.562500 0.091495
2248.681641 0.079931
2247.800781 0.086130
2246.918945 0.102093
2246.037109 0.086983
2245.155273 0.094952
2244.273438 0.086948
2243.391602 0.089591
2242.509766 0.093120
2241.626953 0.078914
2240.744141 0.086877
2239.861328 0.091291
2238.978516 0.088614
2238.094727 0.098341
2237.211914 0.077948
2236.328125 0.101844
2235.444336 0.092969
2234.560547 0.092065
2233.675781 0.098241
2232.791992 0.098221
2231.907227 0.095547
2231.022461 0.089336
2230.137695 0.093739
2229.252930 0.093720
2228.368164 0.090165
2227.482422 0.100752
2226.596680 0.098081
2225.710938 0.093644
2224.825195 0.099807
2223.938477 0.094488
2223.052734 0.089172
2222.166016 0.085623
2221.279297 0.100608
2220.392578 0.088235
2219.505859 0.092627
2218.618164 0.095254
2217.731445 0.103171
2216.843750 0.089926
2215.956055 0.089907
2215.068359 0.097820
2214.179688 0.097800
2213.291016 0.093375
2212.403320 0.109209
2211.514648 0.100381
2210.625977 0.088916
2209.736328 0.102981
2208.847656 0.101200
2207.958008 0.090621
2207.068359 0.095880
2206.178711 0.101137
2205.289063 0.097599
2204.398438 0.087909
2203.507813 0.097559
2202.618164 0.092267
2201.727539 0.105426
2200.835938 0.096621
2199.945313 0.093966
2199.053711 0.107995
2198.162109 0.108851
2197.270508 0.101807
2196.378906 0.110561
2195.487305 0.111415
2194.594727 0.107884
2193.703125 0.113123
2192.810547 0.106962
2191.917969 0.101681
2191.024414 0.122693
2190.131836 0.108649
2189.238281 0.105122
2188.344727 0.104225
2187.451172 0.112084
2186.557617 0.107683
2185.664063 0.105035
2184.769531 0.101513
2183.875000 0.113741
2182.980469 0.119841
2182.085938 0.105823
2181.191406 0.112796
2180.295898 0.113647
2179.400391 0.108379
2178.504883 0.101366
2177.609375 0.126681
2176.713867 0.111806
2175.817383 0.126629
2174.921875 0.107394
2174.025391 0.121339
2173.128906 0.110840
2172.231445 0.118671
2171.334961 0.109922
2170.437500 0.107283
2169.540039 0.109876
2168.642578 0.104622
2167.745117 0.110702
2166.847656 0.113294
2165.949219 0.108042
2165.050781 0.113247
2164.152344 0.111481
2163.253906 0.096655
2162.354492 0.113176
2161.456055 0.095744
2160.556641 0.102686
2159.657227 0.108755
2158.757813 0.082637
2157.858398 0.111319
2156.958008 0.095645
2156.057617 0.099102
2155.157227 0.099081
2154.256836 0.113833
2153.356445 0.098171
2152.456055 0.109442
2151.554688 0.094657
2150.653320 0.101583
2149.751953 0.102430
2148.850586 0.114558
2147.948242 0.094578
2147.045898 0.111040
2146.144531 0.108415
2145.242188 0.117064
2144.338867 0.112705
2143.436523 0.104880
2142.533203 0.097925
2141.629883 0.116100
2140.726563 0.105680
2139.823242 0.107390
2138.919922 0.111697
2138.015625 0.106480
2137.111328 0.121171
2136.207031 0.115954
2135.302734 0.127176
2134.398438 0.110715
2133.493164 0.111557
2132.588867 0.117586
2131.683594 0.126205
2130.778320 0.126179
2129.872070 0.133064
2128.966797 0.151178
2128.060547 0.145964
2127.154297 0.149387
2126.248047 0.132089
2125.341797 0.147598
2124.434570 0.132897
2123.527344 0.139771
2122.620117 0.148367
2121.712891 0.137987
2120.805664 0.137096
2119.897461 0.142239
2118.990234 0.131005
2118.082031 0.143041
2117.173828 0.130950
2116.265625 0.128338
2115.356445 0.113672
2114.447266 0.124840
2113.539063 0.121371
2112.628906 0.131672
2111.719727 0.105832
2110.810547 0.113552
2109.900391 0.104927
2108.990234 0.100605
2108.080078 0.112620
2107.169922 0.105720
2106.258789 0.114291
2105.348633 0.102239
2104.437500 0.108230
2103.526367 0.115077
2102.615234 0.103032
2101.703125 0.105586
2100.791992 0.107280
2099.879883 0.112405
2098.967773 0.103803
2098.055664 0.114073
2097.142578 0.097756
2096.230469 0.108881
2095.317383 0.102857
2094.404297 0.114833
2093.490234 0.114809
2092.577148 0.120780
2091.663086 0.105339
2090.750000 0.109598
2089.835938 0.107863
2088.920898 0.093290
2088.006836 0.103538
2087.091797 0.100950
2086.177734 0.107771
2085.262695 0.116299
2084.346680 0.102595
2083.431641 0.111121
2082.515625 0.126480
2081.600586 0.117909
2080.684570 0.114467
2079.767578 0.111880
2078.851563 0.102464
2077.934570 0.111832
2077.017578 0.112662
2076.100586 0.110931
2075.183594 0.116880
2074.266602 0.119413
2073.348633 0.109155
2072.430664 0.111689
2071.512695 0.101436
2070.594727 0.116755
2069.676758 0.115878
2068.757813 0.117556
2067.838867 0.110718
2066.919922 0.111546
2066.000977 0.116630
2065.082031 0.114902
2064.162109 0.106368
2063.242188 0.102092
2062.322266 0.109725
2061.402344 0.112252
2060.481445 0.126682
2059.561523 0.106254
2058.640625 0.115580
2057.719727 0.106208
2056.798828 0.107884
2055.876953 0.106163
2054.956055 0.115480
2054.034180 0.115455
2053.112305 0.120523
2052.189453 0.126437
2051.267578 0.124713
2050.344727 0.106874
2049.421875 0.118723
2048.499023 0.111915
2047.576172 0.120367
2046.652344 0.124578
2045.729492 0.119468
2044.805664 0.115206
2043.881836 0.122804
2042.957031 0.123624
2042.033203 0.122751
2041.108398 0.122724
2040.183594 0.122698
2039.258789 0.135361
2038.333984 0.112495
2037.408203 0.105705
2036.483398 0.120055
2035.557617 0.116648
2034.630859 0.130989
2033.705078 0.115752
2032.778320 0.115727
2031.852539 0.119925
2030.925781 0.124234
2030.818359 0.124121
2029.999023 0.116628
2029.892578 0.118184
2029.071289 0.106468
2028.965820 0.113095
2028.144531 0.117433
2028.040039 0.127415
2027.216797 0.103053
2027.113281 0.112202
2026.289063 0.108948
2026.186523 0.130733
2025.361328 0.115685
2025.260742 0.134921
2024.432617 0.116509
2024.333008 0.119717
2023.503906 0.120710
2023.406250 0.130648
2022.576172 0.121534
2022.479492 0.125563
2021.647461 0.122357
2021.551758 0.114583
2020.717773 0.112212
2020.624023 0.123824
2019.789063 0.118097
2019.696289 0.115375
2018.859375 0.116390
2018.768555 0.129664
2017.929688 0.118057
2017.840820 0.113642
2017.000000 0.120566
2016.913086 0.115300
2016.070313 0.116331
2015.984375 0.128737
2015.139648 0.125582
2015.055664 0.124503
2014.209961 0.123875
2014.126953 0.125317
2013.279297 0.099420
2013.198242 0.129494
2012.348633 0.106985
2012.269531 0.131988
2011.416992 0.122969
2011.340820 0.132799
2010.486328 0.133895
2010.411133 0.128569
2009.554688 0.125453
2009.482422 0.125180
2008.623047 0.119538
2008.552734 0.135232
2007.691406 0.115309
2007.623047 0.131843
2006.759766 0.124546
2006.692383 0.115862
2005.827148 0.119476
2005.762695 0.123392
2004.894531 0.127868
2004.833008 0.120847
2003.961914 0.118594
2003.902344 0.125855
2003.029297 0.126983
2002.971680 0.126666
2002.096680 0.118553
2002.041016 0.123283
2001.163086 0.121054
2001.110352 0.129126
2000.229492 0.129438
2000.178711 0.126582
1999.295898 0.126895
1999.248047 0.121526
1998.362305 0.125192
1998.316406 0.128203
1997.427734 0.121810
1997.384766 0.127337
1996.494141 0.125149
1996.453125 0.133172
1995.559570 0.126806
1995.521484 0.128955
1994.625000 0.116709
1994.589844 0.128927
1993.689453 0.128441
1993.657227 0.121366
1992.754883 0.130097
1992.724609 0.129707
1991.819336 0.120844
1991.792969 0.122149
1990.883789 0.134247
1990.860352 0.143033
1989.948242 0.114090
1989.926758 0.111223
1989.012695 0.125813
1988.994141 0.137953
1988.076172 0.133338
1988.061523 0.139595
1987.139648 0.137507
1987.127930 0.126193
1986.203125 0.125746
1986.194336 0.132013
1985.266602 0.123210
1985.260742 0.128643
1984.330078 0.139110
1984.327148 0.145318
1983.392578 0.127356
1983.392578 0.115226
1982.458984 0.132360
1982.455078 0.133566
1981.524414 0.120610
1981.517578 0.131033
1980.589844 0.127288
1980.580078 0.133507
1979.655273 0.127266
1979.641602 0.133478
1978.720703 0.127243
1978.703125 0.126776
1977.786133 0.136428
1977.765625 0.143425
1976.850586 0.126361
1976.826172 0.126719
1975.915039 0.133869
1975.887695 0.134193
1974.979492 0.133845
1974.948242 0.124163
1974.043945 0.127967
1974.009766 0.128301
1973.108398 0.133798
1973.070313 0.139934
1972.172852 0.126249
1972.130859 0.145732
1971.236328 0.132079
1971.190430 0.129048
1970.299805 0.129548
1970.250000 0.144003
1969.363281 0.129525
1969.310547 0.136481
1968.426758 0.135350
1968.370117 0.123138
1967.490234 0.130314
1967.428711 0.130597
1966.553711 0.133631
1966.488281 0.127242
1965.616211 0.136948
1965.546875 0.127213
1964.678711 0.134418
1964.605469 0.124691
1963.741211 0.141907
1963.664063 0.117183
1962.803711 0.130197
1962.722656 0.128790
1961.866211 0.128505
1961.780273 0.129592
1960.928711 0.126813
1960.837891 0.136207
1959.990234 0.140137
1959.895508 0.151953
1959.051758 0.137610
1958.953125 0.131996
1958.113281 0.140087
1958.010742 0.128646
1957.174805 0.121720
1957.067383 0.132766
1956.236328 0.135869
1956.124023 0.140203
1955.296875 0.152512
1955.180664 0.141001
1954.357422 0.151651
1954.237305 0.137653
1953.418945 0.143293
1953.292969 0.137622
1952.479492 0.137437
1952.349609 0.155826
1951.539063 0.134081
1951.405273 0.140046
1950.599609 0.134056
1950.460938 0.138358
1949.660156 0.143190
1949.515625 0.147438
1948.719727 0.150655
1948.571289 0.130843
1947.779297 0.152292
1947.625977 0.160619
1946.838867 0.144776
1946.680664 0.140717
1945.898438 0.131439
1945.735352 0.154754
1944.957031 0.138901
1944.789063 0.138999
1944.016602 0.145529
1943.842773 0.142276
1943.075195 0.145502
1942.896484 0.151341
1942.133789 0.142982
1941.950195 0.139732
1941.192383 0.143787
1941.003906 0.138874
1940.250977 0.159550
1940.056641 0.149586
1939.308594 0.145396
1939.110352 0.148726
1938.366211 0.132910
1938.163086 0.144562
1937.424805 0.140360
1937.215820 0.137922
1936.482422 0.143656
1936.267578 0.156057
1935.539063 0.145290
1935.319336 0.150243
1934.596680 0.149414
1934.372070 0.152685
1933.654297 0.140258
1933.422852 0.151000
1932.710938 0.147700
1932.474609 0.150966
1931.767578 0.134399
1931.526367 0.155880
1930.824219 0.145157
1930.577148 0.163266
1929.880859 0.155912
1929.627930 0.129429
1928.936523 0.148421
1928.678711 0.135169
1927.993164 0.145077
1927.728516 0.144203
1927.048828 0.140078
1926.779297 0.150761
1926.104492 0.150825
1925.829102 0.132606
1925.160156 0.151626
1924.878906 0.149869
1924.215820 0.159882
1923.928711 0.144072
1923.270508 0.154055
1922.977539 0.152270
1922.326172 0.135808
1922.026367 0.144007
1921.380859 0.143235
1921.075195 0.149733
1920.435547 0.177148
1920.124023 0.143119
1919.490234 0.152286
1919.172852 0.143908
1918.543945 0.139018
1918.220703 0.143053
1917.598633 0.148920
1917.268555 0.161104
1916.652344 0.137312
1916.316406 0.147097
1915.706055 0.144730
1915.364258 0.156101
1914.759766 0.153799
1914.411133 0.151958
1913.813477 0.157904
1913.458984 0.149460
1912.866211 0.152089
1912.505859 0.159278
1911.919922 0.153713
1911.552734 0.143646
1910.972656 0.148727
1910.598633 0.155102
1910.025391 0.152830
1909.645508 0.156708
1909.078125 0.147020
1908.691406 0.154211
1908.129883 0.151122
1907.737305 0.146795
1907.182617 0.149442
1906.782227 0.157420
1906.234375 0.147764
1905.828125 0.157384
1905.286133 0.141133
1904.873047 0.157348
1904.337891 0.151834
1903.917969 0.149118
1903.389648 0.146856
1902.962891 0.147446
1902.440430 0.155902
1902.006836 0.159696
1901.492188 0.150925
1901.051758 0.158841
1900.542969 0.151721
1900.095703 0.157167
1899.593750 0.160761
1899.139648 0.151402
1898.644531 0.144246
1898.183594 0.175914
1897.695313 0.152460
1897.226563 0.149697
1896.745117 0.152431
1896.269531 0.152116
1895.794922 0.153227
1895.312500 0.165981
1894.844727 0.158140
1894.355469 0.160220
1893.894531 0.163875
1893.398438 0.156914
1892.944336 0.161374
1892.440430 0.147890
1891.994141 0.144057
1891.482422 0.155208
1891.042969 0.162959
1890.524414 0.158439
1890.091797 0.159637
1889.566406 0.164934
1889.140625 0.149734
1888.607422 0.157549
1888.189453 0.158754
1887.648438 0.150984
1887.238281 0.148033
1886.689453 0.157477
1886.286133 0.156228
1885.730469 0.159887
1885.334961 0.140579
1884.770508 0.154957
1884.382813 0.152881
1883.811523 0.148398
1883.430664 0.158605
1882.851563 0.169559
1882.477539 0.159397
1881.891602 0.168704
1881.525391 0.151973
1880.930664 0.159702
1880.572266 0.146195
1879.970703 0.156407
1879.619141 0.155200
1879.009766 0.149855
1878.666016 0.155171
1878.048828 0.145749
1877.712891 0.146933
1877.086914 0.152227
1876.759766 0.169064
1876.125977 0.161144
1875.805664 0.146057
1875.164063 0.163548
1874.852539 0.159155
1874.202148 0.151308
1873.898438 0.160766
1873.240234 0.146393
1872.943359 0.151714
1872.277344 0.165873
1871.989258 0.168904
1871.315430 0.160144
1871.035156 0.170511
1870.352539 0.151979
1870.080078 0.143432
1869.389648 0.151131
1869.125000 0.167988
1868.425781 0.155970
1868.169922 0.143377
1867.462891 0.154309
1867.214844 0.154818
1866.499023 0.164829
1866.258789 0.162978
1865.535156 0.159108
1865.303711 0.153940
1864.570313 0.153389
1864.347656 0.151454
1863.606445 0.167147
1863.391602 0.155518
1862.641602 0.158996
1862.435547 0.164490
1861.676758 0.154093
1861.479492 0.158732
1860.711914 0.168518
1860.522461 0.162975
1859.746094 0.160307
1859.565430 0.169422
1858.781250 0.159458
1858.608398 0.154795
1857.815430 0.160245
1857.651367 0.161240
1856.849609 0.150406
1856.694336 0.178214
1855.882813 0.154463
1855.736328 0.160354
1854.916992 0.165056
1854.779297 0.152220
1853.950195 0.161756
1853.821289 0.167564
1852.983398 0.162542
1852.863281 0.169144
1852.015625 0.164961
1851.905273 0.163440
1851.048828 0.158397
1850.946289 0.152076
1850.081055 0.159183
1849.988281 0.173876
1849.113281 0.152623
1849.029297 0.169792
1848.145508 0.165650
1848.070313 0.181878
1847.176758 0.157460
1847.111328 0.150317
1846.208008 0.140300
1846.151367 0.159977
1845.239258 0.162292
1845.192383 0.172055
1844.270508 0.165522
1844.232422 0.169592
1843.301758 0.159784
1843.272461 0.173589
1842.332031 0.176869
1842.312500 0.154982
1841.362305 0.164612
1841.352539 0.175120
1840.392578 0.177616
1840.391602 0.174272
1839.430664 0.162104
1839.422852 0.175037
1838.470703 0.165331
1838.452148 0.182253
1837.508789 0.169370
1837.481445 0.170923
1836.547852 0.178293
1836.510742 0.179749
1835.586914 0.165235
1835.540039 0.166812
1834.625000 0.166830
1834.568359 0.179663
1833.663086 0.169239
1833.597656 0.191702
1832.701172 0.182222
1832.625000 0.181993
1831.739258 0.201707
1831.653320 0.173094
1830.777344 0.186217
1830.681641 0.176272
1829.814453 0.172360
1829.708984 0.176230
1828.851563 0.174765
1828.736328 0.201932
1827.888672 0.172293
1827.763672 0.175342
1826.925781 0.164946
1826.790039 0.168062
1825.962891 0.169789
1825.817383 0.196160
1824.999023 0.180315
1824.843750 0.170393
1824.035156 0.190024
1823.869141 0.184013
1823.071289 0.176997
1822.895508 0.191199
1822.107422 0.185892
1821.920898 0.184728
1821.143555 0.175305
1820.947266 0.171836
1820.178711 0.166345
1819.971680 0.170992
1819.214844 0.180104
1818.997070 0.178174
1818.250000 0.189802
1818.021484 0.183748
1817.285156 0.169491
1817.046875 0.175682
1816.319336 0.167026
1816.070313 0.182857
1815.354492 0.177531
1815.094727 0.173192
1814.388672 0.163718
1814.119141 0.173150
1813.422852 0.177462
1813.142578 0.184328
1812.457031 0.188770
1812.166016 0.184284
1811.491211 0.177393
1811.188477 0.173826
1810.525391 0.162780
1810.211914 0.177788
1809.558594 0.174894
1809.234375 0.158529
1808.591797 0.177288
1808.256836 0.176901
1807.625000 0.180491
1807.279297 0.168856
1806.658203 0.187739
1806.300781 0.176016
1805.690430 0.185275
1805.322266 0.190371
1804.723633 0.182811
1804.343750 0.170332
1803.755859 0.190863
1803.365234 0.179086
1802.788086 0.182740
1802.386719 0.179042
1801.820313 0.183512
1801.407227 0.167012
1800.851563 0.166503
1800.427734 0.185346
1799.883789 0.184248
1799.448242 0.173321
1798.915039 0.181788
1798.467773 0.182062
1797.946289 0.179329
1797.488281 0.182816
1796.977539 0.184139
1796.507813 0.184368
1796.007813 0.177643
1795.527344 0.187514
1795.039063 0.183259
1794.545898 0.187469
1794.069336 0.184030
1793.564453 0.178650
1793.099609 0.190450
1792.583008 0.182593
1792.129883 0.191219
1791.601563 0.175374
1791.160156 0.176661
1790.620117 0.185692
1790.189453 0.182272
1789.637695 0.189630
1789.218750 0.179011
1788.655273 0.178432
1788.248047 0.183812
1787.672852 0.184759
1787.277344 0.200703
1786.690430 0.184714
1786.306641 0.184546
1785.707031 0.185464
1785.334961 0.184509
1784.723633 0.183031
1784.364258 0.174000
1783.740234 0.190147
1783.392578 0.195712
1782.756836 0.204417
1782.420898 0.198088
1781.772461 0.194824
1781.448242 0.208515
1780.788086 0.193186
1780.476563 0.194790
1779.803711 0.205061
1779.503906 0.185094
1778.819336 0.201037
1778.531250 0.205173
1777.833984 0.194632
1777.558594 0.211568
1776.848633 0.204115
1776.585938 0.204287
1775.863281 0.204859
1775.612305 0.207463
1774.877930 0.205602
1774.638672 0.192146
1773.891602 0.199202
1773.666016 0.201754
1772.905273 0.211848
1772.691406 0.218590
1771.918945 0.201483
1771.717773 0.223367
1770.931641 0.213683
1770.744141 0.237120
1769.945313 0.203199
1769.769531 0.222790
1768.958008 0.199947
1768.794922 0.213223
1767.970703 0.230415
1767.820313 0.210793
1766.982422 0.223145
1766.845703 0.206779
1765.995117 0.217483
1765.870117 0.219401
1765.006836 0.235894
1764.894531 0.220138
1764.018555 0.236649
1763.919922 0.213750
1763.029297 0.239810
1762.944336 0.227152
1762.041016 0.228536
1761.967773 0.223139
1761.051758 0.209249
1760.992188 0.215172
1760.062500 0.231650
1760.015625 0.215118
1759.072266 0.212371
1759.039063 0.224553
1758.083008 0.230757
1758.062500 0.221335
1757.092773 0.215490
1757.085938 0.211006
1756.108398 0.214646
1756.101563 0.214113
1755.131836 0.200189
1755.111328 0.225118
1754.154297 0.232173
1754.120117 0.214796
1753.176758 0.219319
1753.128906 0.198163
1752.198242 0.223277
1751.220703 0.222432
1750.242188 0.212788
1749.263672 0.211146
1748.285156 0.221498
1747.306641 0.209462
1746.327148 0.220610
1745.348633 0.226959
1744.369141 0.228511
1743.389648 0.240448
1742.409180 0.218037
1741.429688 0.241948
1740.449219 0.221142
1739.468750 0.225887
1738.488281 0.216265
1737.507813 0.221009
1736.526367 0.213785
1735.544922 0.228895
1734.563477 0.226457
1733.582031 0.224817
1732.600586 0.210424
1731.618164 0.225523
1730.636719 0.232648
1729.654297 0.230211
1728.671875 0.220608
1727.688477 0.238877
1726.706055 0.222907
1725.722656 0.222861
1724.739258 0.230774
1723.755859 0.224362
1722.771484 0.226703
1721.788086 0.222681
1720.803711 0.210709
1719.819336 0.224181
1718.834961 0.219366
1717.850586 0.216143
1716.865234 0.237550
1715.879883 0.223999
1714.894531 0.236660
1713.909180 0.223908
1712.923828 0.230213
1711.937500 0.234928
1710.951172 0.234880
1709.964844 0.249906
1708.978516 0.221301
1707.991211 0.229979
1707.004883 0.240239
1706.017578 0.246532
1705.030273 0.239349
1704.042969 0.244054
1703.054688 0.237667
1702.066406 0.236826
1701.078125 0.247073
1700.089844 0.237522
1699.101563 0.251721
1698.113281 0.242964
1697.124023 0.235794
1696.134766 0.228626
1695.145508 0.216715
1694.155273 0.235649
1693.166016 0.230067
1692.175781 0.234762
1691.185547 0.257632
1690.195313 0.245728
1689.205078 0.244887
1688.213867 0.245627
1687.222656 0.225046
1686.231445 0.232895
1685.240234 0.232058
1684.249023 0.254896
1683.256836 0.234330
1682.264648 0.241381
1681.272461 0.245275
1680.280273 0.229454
1679.287109 0.241232
1678.294922 0.242759
1677.301758 0.241921
1676.308594 0.247387
1675.315430 0.237883
1674.321289 0.227596
1673.327148 0.230699
1672.333008 0.232226
1671.338867 0.251067
1670.344727 0.249442
1669.349609 0.246244
1668.355469 0.246979
1667.360352 0.240637
1666.365234 0.231939
1665.369141 0.238180
1664.374023 0.240489
1663.377930 0.238082
1662.381836 0.249816
1661.384766 0.241911
1660.388672 0.252854
1659.391602 0.272429
1658.395508 0.255105
1657.397461 0.250343
1656.400391 0.236953
1655.403320 0.244749
1654.405273 0.247051
1653.407227 0.264250
1652.409180 0.271251
1651.411133 0.259438
1650.412109 0.259384
1649.413086 0.250713
1648.414063 0.287476
1647.415039 0.280368
1646.416016 0.271697
1645.416016 0.278686
1644.416016 0.267671
1643.416016 0.267616
1642.416016 0.272254
1641.415039 0.271416
1640.415039 0.290910
1639.414063 0.279903
1638.413086 0.282972
1637.411133 0.296199
1636.410156 0.297700
1635.408203 0.289045
1634.406250 0.293671
1633.404297 0.276431
1632.402344 0.301356
1631.399414 0.291927
1630.396484 0.280160
1629.393555 0.284783
1628.390625 0.286284
1627.387695 0.276085
1626.383789 0.287724
1625.379883 0.293901
1624.375977 0.315663
1623.372070 0.300791
1622.367188 0.296833
1621.362305 0.292098
1620.357422 0.304497
1619.352539 0.316891
1618.347656 0.311376
1617.341797 0.309754
1616.335938 0.311245
1615.330078 0.329073
1614.324219 0.327449
1613.318359 0.321159
1612.311523 0.321092
1611.304688 0.338903
1610.297852 0.342718
1609.291016 0.328660
1608.283203 0.334029
1607.275391 0.341726
1606.267578 0.347866
1605.259766 0.347793
1604.251953 0.329868
1603.243164 0.338335
1602.234375 0.334385
1601.225586 0.354482
1600.216797 0.346653
1599.207031 0.350457
1598.198242 0.355809
1597.188477 0.358835
1596.178711 0.350236
1595.167969 0.354036
1594.158203 0.343892
1593.147461 0.352338
1592.136719 0.325941
1591.125977 0.325098
1590.114258 0.304909
1589.103516 0.341210
1588.091797 0.347326
1587.080078 0.344160
1586.067383 0.320117
1585.055664 0.310000
1584.042969 0.327711
1583.030273 0.329960
1582.017578 0.315984
1581.003906 0.312055
1579.991211 0.315851
1578.977539 0.311152
1577.963867 0.308770
1576.949219 0.314879
1575.935547 0.332559
1574.920898 0.327089
1573.906250 0.325477
1572.891602 0.294564
1571.876953 0.320714
1570.861328 0.316022
1569.845703 0.329826
1568.830078 0.342084
1567.814453 0.342781
1566.797852 0.337318
1565.782227 0.351106
1564.765625 0.372586
1563.749023 0.376355
1562.731445 0.393974
1561.714844 0.393890
1560.697266 0.392268
1559.679688 0.387571
1558.662109 0.382876
1557.643555 0.386638
1556.625000 0.388093
1555.607422 0.407219
1554.587891 0.370260
1553.569336 0.368646
1552.549805 0.368567
1551.531250 0.373095
1550.511719 0.379924
1549.491211 0.371402
1548.471680 0.365185
1547.451172 0.370477
1546.430664 0.372699
1545.410156 0.373386
1544.389648 0.387871
1543.368164 0.385489
1542.346680 0.415289
1541.325195 0.418265
1540.303711 0.428133
1539.282227 0.428041
1538.259766 0.426419
1537.237305 0.447759
1536.214844 0.476743
1535.191406 0.461340
1534.168945 0.495662
1533.145508 0.474908
1532.122070 0.498509
1531.098633 0.517513
1530.074219 0.507467
1529.050781 0.511943
1528.026367 0.524057
1527.000977 0.552204
1525.976563 0.513906
1524.951172 0.541280
1523.926758 0.510633
1522.901367 0.481525
1521.875000 0.509651
1520.849609 0.479793
1519.823242 0.465963
1518.796875 0.479588
1517.770508 0.487108
1516.743164 0.467188
1515.716797 0.431276
1514.689453 0.434992
1513.662109 0.422712
1512.634766 0.403585
1511.606445 0.389794
1510.578125 0.395039
1509.549805 0.391910
1508.521484 0.384218
1507.493164 0.371965
1506.463867 0.368082
1505.434570 0.370284
1504.405273 0.344359
1503.375977 0.355685
1502.345703 0.352569
1501.315430 0.354772
1500.285156 0.360012
1499.254883 0.356138
1498.223633 0.380355
1497.193359 0.373442
1496.162109 0.375638
1495.130859 0.372523
1494.098633 0.387613
1493.067383 0.362503
1492.035156 0.367733
1491.002930 0.374476
1489.969727 0.366058
1488.937500 0.381891
1487.904297 0.380294
1486.871094 0.398389
1485.837891 0.408147
1484.803711 0.420929
1483.770508 0.432192
1482.736328 0.423017
1481.702148 0.419900
1480.666992 0.421322
1479.632813 0.471143
1478.597656 0.440798
1477.562500 0.455821
1476.527344 0.457234
1475.491211 0.439756
1474.455078 0.451748
1473.418945 0.453916
1472.382813 0.434184
1471.346680 0.439375
1470.309570 0.439280
1469.272461 0.415791
1468.235352 0.444370
1467.198242 0.412594
1466.160156 0.404209
1465.122070 0.419954
1464.083984 0.421371
1463.045898 0.388873
1462.006836 0.396323
1460.968750 0.423356
1459.929688 0.398411
1458.889648 0.399077
1457.850586 0.414799
1456.810547 0.414709
1455.771484 0.383014
1454.730469 0.412272
1453.690430 0.389617
1452.649414 0.410588
1451.609375 0.391703
1450.568359 0.396128
1449.526367 0.399047
1448.485352 0.387690
1447.443359 0.383099
1446.401367 0.392027
1445.359375 0.385935
1444.316406 0.382848
1443.274414 0.400777
1442.231445 0.375177
1441.188477 0.399852
1440.144531 0.393014
1439.101563 0.404176
1438.057617 0.399590
1437.013672 0.403250
1435.968750 0.395668
1434.924805 0.409067
1433.879883 0.425457
1432.834961 0.432104
1431.790039 0.451476
1430.744141 0.479073
1429.698242 0.464749
1428.653320 0.493828
1427.606445 0.463797
1426.560547 0.494359
1425.513672 0.483035
1424.466797 0.515822
1423.419922 0.526920
1422.373047 0.520079
1421.325195 0.527436
1420.277344 0.529560
1419.229492 0.513016
1418.181641 0.530074
1417.132813 0.509058
1416.084961 0.504469
1415.036133 0.521518
1413.986328 0.551240
1412.937500 0.550373
1411.887695 0.537577
1410.837891 0.520314
1409.788086 0.523925
1408.738281 0.543183
1407.687500 0.556472
1406.636719 0.539964
1405.585938 0.513784
1404.534180 0.520371
1403.483398 0.515046
1402.431641 0.510468
1401.379883 0.511099
1400.327148 0.508755
1399.275391 0.478154
1398.222656 0.514478
1397.169922 0.498011
1396.117188 0.500131
1395.063477 0.490362
1394.009766 0.468712
1392.956055 0.490887
1391.902344 0.474444
1390.848633 0.466174
1389.793945 0.492046
1388.739258 0.491937
1387.684570 0.495537
1386.628906 0.493202
1385.574219 0.465658
1384.518555 0.495949
1383.462891 0.492133
1382.406250 0.501657
1381.350586 0.507472
1380.293945 0.517729
1379.237305 0.527241
1378.179688 0.518240
1377.123047 0.504801
1376.065430 0.526150
1375.007813 0.528252
1373.949219 0.531833
1372.891602 0.538371
1371.833008 0.575958
1370.774414 0.554393
1369.715820 0.550575
1368.656250 0.528286
1367.596680 0.549591
1366.537109 0.531743
1365.477539 0.536794
1364.417969 0.547747
1363.357422 0.557957
1362.296875 0.575542
1361.236328 0.554020
1360.174805 0.585611
1359.113281 0.573682
1358.052734 0.567656
1356.990234 0.567529
1355.928711 0.575508
1354.866211 0.565065
1353.803711 0.527374
1352.741211 0.551557
1351.678711 0.533765
1350.615234 0.521868
1349.551758 0.531318
1348.488281 0.516484
1347.424805 0.520782
1346.360352 0.525813
1345.295898 0.539665
1344.231445 0.498380
1343.166992 0.510026
1342.101563 0.519464
1341.036133 0.496575
1339.970703 0.539794
1338.905273 0.497086
1337.838867 0.447791
1336.772461 0.491725
1335.706055 0.504089
1334.639648 0.486369
1333.572266 0.466457
1332.504883 0.482484
1331.437500 0.480176
1330.370117 0.471273
1329.302734 0.468968
1328.234375 0.452013
1327.166016 0.484871
1326.096680 0.477439
1325.028320 0.458296
1323.958984 0.471368
1322.889648 0.432477
1321.820313 0.467497
1320.750000 0.417653
1319.679688 0.454854
1318.609375 0.446709
1317.539063 0.461958
1316.468750 0.420199
1315.397461 0.426679
1314.326172 0.445575
1313.254883 0.444743
1312.182617 0.417628
1311.142578 0.417534
1311.110352 0.399852
1310.069336 0.407952
1310.038086 0.439983
1308.997070 0.424641
1308.965820 0.431150
1307.923828 0.422356
1307.892578 0.418673
1306.851563 0.407674
1306.820313 0.425162
1305.778320 0.411957
1305.747070 0.413419
1304.704102 0.396555
1304.672852 0.395120
1303.630859 0.397922
1303.599609 0.426391
1302.557617 0.438635
1302.525391 0.387691
1301.483398 0.434893
1301.451172 0.407294
1300.409180 0.416587
1300.376953 0.410863
1299.334961 0.397561
1299.301758 0.407147
1298.259766 0.411302
1298.227539 0.402705
1297.185547 0.418650
1297.152344 0.406114
1296.110352 0.402560
1296.076172 0.413298
1295.035156 0.388658
1295.000977 0.429208
1293.959961 0.389316
1293.924805 0.418928
1292.883789 0.412527
1292.848633 0.410107
1291.808594 0.415362
1291.772461 0.416556
1290.732422 0.414560
1290.695313 0.417915
1289.656250 0.421029
1289.618164 0.419272
1288.580078 0.428950
1288.541016 0.414091
1287.502930 0.420876
1287.463867 0.458302
1286.426758 0.443330
1286.386719 0.442222
1285.349609 0.439616
1285.308594 0.429053
1284.272461 0.434450
1284.230469 0.433310
1283.195313 0.438729
1283.152344 0.420875
1282.118164 0.404516
1282.073242 0.420779
1281.040039 0.390646
1280.994141 0.440266
1279.961914 0.392027
1279.915039 0.410434
1278.883789 0.428247
1278.835938 0.393666
1277.805664 0.388255
1277.755859 0.395750
1276.727539 0.364965
1276.676758 0.413776
1275.648438 0.389563
1275.596680 0.408609
1274.569336 0.372810
1274.515625 0.378819
1273.490234 0.375642
1273.435547 0.383801
1272.411133 0.394424
1272.354492 0.385885
1271.332031 0.366080
1271.273438 0.403892
1270.251953 0.371086
1270.191406 0.358209
1269.171875 0.376091
1269.110352 0.354509
1268.091797 0.378195
1268.028320 0.378297
1267.011719 0.365811
1266.946289 0.360131
1265.931641 0.362122
1265.864258 0.379569
1264.850586 0.385951
1264.781250 0.366471
1263.769531 0.353300
1263.698242 0.384453
1262.688477 0.374950
1262.615234 0.382920
1261.607422 0.365473
1261.532227 0.380665
1260.526367 0.372641
1260.448242 0.379855
1259.444336 0.368954
1259.364258 0.373991
1258.362305 0.377566
1258.280273 0.369574
1257.280273 0.373157
1257.196289 0.368046
1256.198242 0.368026
1256.111328 0.370847
1255.115234 0.375909
1255.026367 0.379417
1254.033203 0.381622
1253.941406 0.380051
1252.950195 0.373602
1252.856445 0.372032
1251.867188 0.381479
1251.770508 0.382037
1250.783203 0.380686
1250.684570 0.371139
1249.700195 0.383504
1249.598633 0.371053
1248.616211 0.398596
1248.511719 0.386094
1247.532227 0.384804
1247.425781 0.374483
1246.448242 0.383289
1246.338867 0.388796
1245.364258 0.383217
1245.250977 0.383667
1244.279297 0.399741
1244.164063 0.397251
1243.195313 0.378024
1243.076172 0.395720
1242.110352 0.389493
1241.988281 0.395629
1241.024414 0.402401
1240.900391 0.417112
1239.939453 0.416024
1239.812500 0.427800
1238.853516 0.417388
1238.723633 0.418356
1237.768555 0.425958
1237.634766 0.439818
1236.682617 0.428761
1236.544922 0.447619
1235.595703 0.427239
1235.456055 0.428839
1234.509766 0.435082
1234.366211 0.463211
1233.422852 0.464528
1233.276367 0.459513
1232.336914 0.432758
1232.186523 0.440743
1231.250000 0.457153
1231.095703 0.447099
1230.162109 0.459226
1230.004883 0.442690
1229.075195 0.451223
1228.914063 0.444739
1227.987305 0.450418
1227.823242 0.446787
1226.899414 0.421558
1226.731445 0.446682
1225.811523 0.422197
1225.639648 0.425790
1224.723633 0.424274
1224.547852 0.426408
1223.634766 0.404063
1223.456055 0.411262
1222.546875 0.414049
1222.363281 0.407584
1221.458008 0.409659
1221.270508 0.407489
1220.368164 0.410299
1220.177734 0.402382
1219.279297 0.407347
1219.084961 0.385824
1218.189453 0.396495
1217.991211 0.408635
1217.100586 0.400011
1216.897461 0.391367
1216.010742 0.366188
1215.803711 0.374824
1214.919922 0.379040
1214.708984 0.389039
1213.830078 0.403370
1213.614258 0.378938
1212.739258 0.393964
1212.519531 0.416019
1211.648438 0.385280
1211.424805 0.404487
1210.557617 0.393096
1210.329102 0.372955
1209.466797 0.380829
1209.234375 0.407155
1208.375977 0.397965
1208.138672 0.407773
1207.284180 0.416529
1207.041992 0.391970
1206.192383 0.397813
1205.946289 0.406868
1205.100586 0.413502
1204.849609 0.407486
1204.007813 0.404108
1203.752930 0.408103
1202.916016 0.404747
1202.655273 0.397308
1201.823242 0.391061
1201.558594 0.410764
1200.730469 0.414617
1200.460938 0.394982
1199.637695 0.406661
1199.362305 0.398453
1198.543945 0.402288
1198.264648 0.387669
1197.451172 0.387181
1197.166016 0.403252
1196.357422 0.397124
1196.067383 0.398171
1195.263672 0.376301
1194.968750 0.408046
1194.168945 0.407700
1193.870117 0.404390
1193.075195 0.390458
1192.770508 0.393618
1191.980469 0.393957
1191.670898 0.403488
1190.885742 0.398885
1190.570313 0.383471
1189.791016 0.399522
1189.470703 0.381247
1188.696289 0.411593
1188.370117 0.397512
1187.600586 0.391509
1187.269531 0.351207
1186.504883 0.377147
1186.167969 0.370315
1185.409180 0.360648
1185.067383 0.358146
1184.313477 0.349868
1183.965820 0.343142
1183.216797 0.349086
1182.864258 0.348033
1182.121094 0.326178
1181.761719 0.323807
1181.024414 0.333965
1180.659180 0.319470
1179.927734 0.311782
1179.556641 0.339977
1178.830078 0.319568
1178.454102 0.338477
1177.733398 0.315227
1177.351563 0.312148
1176.635742 0.320156
1176.248047 0.339026
1175.538086 0.323659
1175.144531 0.322636
1174.440430 0.309340
1174.040039 0.321850
1173.341797 0.312130
1172.936523 0.307599
1172.243164 0.304232
1171.832031 0.328074
1171.145508 0.319844
1170.727539 0.328704
1170.045898 0.304825
1169.622070 0.330751
1168.947266 0.303341
1168.517578 0.334212
1167.848633 0.317520
1167.412109 0.317850
1166.749023 0.323152
1166.306641 0.325560
1165.649414 0.303874
1165.200195 0.315576
1164.549805 0.323025
1164.093750 0.319037
1163.449219 0.313714
1162.987305 0.309060
1162.348633 0.328588
1161.880859 0.330198
1161.249023 0.324968
1160.773438 0.340722
1160.147461 0.327037
1159.666016 0.342054
1159.046875 0.336924
1158.558594 0.342678
1157.946289 0.337568
1157.451172 0.351779
1156.844727 0.364502
1156.342773 0.346751
1155.743164 0.348091
1155.234375 0.359377
1154.641602 0.337369
1154.125977 0.369173
1153.539063 0.365706
1153.017578 0.367673
1152.436523 0.360664
1151.908203 0.373934
1151.334961 0.372660
1150.798828 0.359032
1150.231445 0.375425
1149.689453 0.368818
1149.128906 0.380318
1148.579102 0.366614
1148.026367 0.385918
1147.468750 0.374984
1146.922852 0.348959
1146.358398 0.350934
1145.819336 0.386474
1145.248047 0.372690
1144.715820 0.380017
1144.136719 0.362739
1143.611328 0.363638
1143.025391 0.373918
1142.506836 0.361439
1141.914063 0.355524
1141.403320 0.362785
1140.801758 0.366700
1140.297852 0.357754
1139.689453 0.362389
1139.193359 0.358391
1138.577148 0.360894
1138.088867 0.343449
1137.464844 0.343224
1136.983398 0.354708
1136.351563 0.341031
1135.877930 0.339065
1135.239258 0.366959
1134.771484 0.360936
1134.125000 0.362653
1133.666016 0.353081
1133.011719 0.342891
1132.559570 0.369989
1131.897461 0.385659
1131.453125 0.356477
1130.783203 0.371520
1130.346680 0.377620
1129.668945 0.351770
1129.240234 0.371182
1128.553711 0.378359
1128.132813 0.381004
1127.439453 0.376162
1127.025391 0.380221
1126.324219 0.420272
1125.917969 0.391450
1125.208008 0.409648
1124.810547 0.399849
1124.092773 0.423574
1123.702148 0.399063
1122.976563 0.426977
1122.594727 0.414518
1121.859375 0.436686
1121.486328 0.400315
1120.743164 0.448493
1120.377930 0.431293
1119.625977 0.441377
1119.268555 0.439676
1118.508789 0.448974
1118.159180 0.452994
1117.391602 0.451666
1117.050781 0.468423
1116.273438 0.436153
1115.940430 0.469739
1115.155273 0.448645
1114.831055 0.435091
1114.037109 0.418447
1113.721680 0.411033
1112.918945 0.439331
1112.611328 0.429982
1111.799805 0.424536
1111.500977 0.412982
1110.680664 0.393666
1110.389648 0.393169
1109.561523 0.383783
1109.279297 0.402248
1108.441406 0.373206
1108.167969 0.389489
1107.321289 0.378005
1107.056641 0.387298
1106.201172 0.381405
1105.945313 0.364691
1105.081055 0.358265
1104.833984 0.346316
1103.959961 0.333740
1103.721680 0.342727
1102.838867 0.337148
1102.609375 0.343362
1101.717773 0.351022
1101.497070 0.327112
1100.595703 0.350936
1100.384766 0.343926
1099.473633 0.353640
1099.271484 0.341044
1098.351563 0.347974
1098.158203 0.321992
1097.229492 0.336036
1097.044922 0.336688
1096.106445 0.344317
1095.931641 0.332403
1094.983398 0.331690
1094.818359 0.328823
1093.860352 0.353901
1093.704102 0.336483
1092.737305 0.346848
1092.589844 0.335713
1091.613281 0.338407
1091.475586 0.334240
1090.489258 0.343196
1090.360352 0.342597
1089.364258 0.344503
1089.246094 0.331999
1088.240234 0.324240
1088.130859 0.336142
1087.115234 0.311638
1087.015625 0.326251
1085.989258 0.340075
1085.900391 0.338109
1084.864258 0.320523
1084.784180 0.350664
1083.738281 0.325309
1083.667969 0.325350
1082.612305 0.350940
1082.551758 0.313366
1081.486328 0.349464
1081.435547 0.318909
1080.359375 0.321593
1080.318359 0.327954
1079.232422 0.317347
1079.202148 0.308270
1078.105469 0.308937
1078.084961 0.316613
1076.977539 0.304696
1076.966797 0.319349
1075.849609 0.321273
1075.849609 0.316483
1074.731445 0.313562
1074.721680 0.297518
1073.613281 0.322500
1073.593750 0.301656
1072.495117 0.298845
1072.464844 0.317689
1071.376953 0.300833
1071.335938 0.311941
1070.257813 0.295176
1070.207031 0.318794
1069.138672 0.313298
1069.077148 0.302086
1068.019531 0.289461
1067.948242 0.300625
1066.900391 0.311771
1066.817383 0.311630
1065.781250 0.327782
1065.687500 0.284550
1064.661133 0.308848
1064.556641 0.306628
1063.541016 0.295511
1063.425781 0.298248
1062.419922 0.298244
1062.294922 0.290563
1061.299805 0.293993
1061.163086 0.304323
1060.178711 0.295329
1060.032227 0.291108
1059.057617 0.308531
1058.899414 0.293801
1057.936523 0.297999
1057.767578 0.286124
1056.815430 0.289565
1056.634766 0.284670
1055.693359 0.282529
1055.501953 0.288743
1054.571289 0.300605
1054.369141 0.294196
1053.449219 0.286596
1053.235352 0.296883
1052.327148 0.284446
1052.101563 0.289215
1051.204102 0.276720
1050.967773 0.278101
1050.081055 0.286419
1049.833984 0.269062
1048.958008 0.287753
1048.699219 0.296584
1047.834961 0.273762
1047.564453 0.288234
1046.710938 0.268830
1046.428711 0.294365
1045.586914 0.259723
1045.293945 0.282574
1044.462891 0.277073
1044.158203 0.288015
1043.338867 0.281192
1043.021484 0.272099
1042.213867 0.304098
1041.885742 0.272718
1041.089844 0.281075
1040.749023 0.296058
1039.964844 0.281713
1039.612305 0.287035
1038.838867 0.290695
1038.474609 0.268382
1037.713867 0.289244
1037.337891 0.289641
1036.587891 0.283623
1036.200195 0.280626
1035.461914 0.281479
1035.061523 0.277116
1034.335938 0.268913
1033.923828 0.281858
1033.209961 0.277194
1032.785156 0.285223
1032.083008 0.273664
1031.646484 0.296144
1030.956055 0.280551
1030.506836 0.267904
1029.829102 0.262441
1029.367188 0.280884
1028.701172 0.274881
1028.227539 0.272573
1027.574219 0.274824
1027.087891 0.270444
1026.446289 0.254645
1025.947266 0.276551
1025.318359 0.272628
1024.806641 0.279911
1024.189453 0.279507
1023.666016 0.266807
1023.061523 0.287077
1022.524414 0.267425
1021.932617 0.271765
1021.382813 0.279010
1020.803711 0.265470
1020.241211 0.271400
1019.674805 0.254327
1019.098633 0.268589
1018.544922 0.263973
1017.957031 0.258930
1017.415039 0.269460
1016.813477 0.269821
1016.285156 0.257630
1015.670898 0.262220
1015.155273 0.254114
1014.527344 0.261469
1014.024414 0.282444
1013.383789 0.270297
1012.894531 0.287922
1012.240234 0.279121
1011.763672 0.282326
1011.095703 0.281785
1010.631836 0.300946
1009.951172 0.296755
1009.500977 0.295350
1008.806641 0.287108
1008.369141 0.289756
1007.662109 0.305486
1007.237305 0.302140
1006.516602 0.315656
1006.105469 0.320049
1005.371094 0.307377
1004.972656 0.338642
1004.224609 0.338028
1003.840820 0.334425
1003.079102 0.353642
1002.708008 0.344717
1001.932617 0.347408
1001.575195 0.372963
1000.785156 0.371883
1000.441406 0.379099
999.638672 0.372468
999.307617 0.377639
998.491211 0.381238
998.173828 0.376869
997.342773 0.354547
997.040039 0.391972
996.195313 0.375586
995.906250 0.382230
995.046875 0.363904
994.771484 0.371803
993.898438 0.344733
993.636719 0.348966
992.749023 0.341919
992.501953 0.358546
991.599609 0.349320
991.367188 0.320555
990.450195 0.313148
990.231445 0.332893
989.300781 0.321234
989.095703 0.305949
987.959961 0.296240
986.824219 0.311331
985.687500 0.291294
984.550781 0.299495
983.414063 0.288418
982.277344 0.300745
981.139648 0.296553
980.001953 0.287547
978.864258 0.283360
977.726563 0.292239
976.587891 0.294240
975.449219 0.293490
974.310547 0.285182
973.171875 0.274816
972.032227 0.307042
970.893555 0.302170
969.752930 0.287000
968.613281 0.320576
967.473633 0.302664
966.333008 0.295738
965.192383 0.295675
964.050781 0.289439
962.910156 0.292121
961.768555 0.292744
960.626953 0.285828
959.485352 0.310437
958.342773 0.278855
957.200195 0.287015
956.057617 0.286269
954.915039 0.262928
953.771484 0.292993
952.628906 0.265554
951.485352 0.255918
950.340820 0.256547
949.197266 0.253757
948.052734 0.256438
946.908203 0.253648
945.762695 0.247442
944.618164 0.256957
943.472656 0.269884
942.327148 0.252749
941.181641 0.245865
940.035156 0.259469
938.888672 0.263509
937.742188 0.266866
936.595703 0.260667
935.448242 0.276303
934.301758 0.264648
933.154297 0.276184
932.005859 0.276807
930.858398 0.269250
929.709961 0.280096
928.561523 0.274585
927.413086 0.287469
926.263672 0.290131
925.114258 0.304368
923.964844 0.303622
922.815430 0.306960
921.665039 0.293285
920.514648 0.300025
919.364258 0.293159
918.213867 0.283575
917.062500 0.296432
915.911133 0.304525
914.759766 0.306498
913.608398 0.305074
912.456055 0.285308
911.303711 0.286605
910.151367 0.289938
908.999023 0.288518
907.845703 0.282347
906.692383 0.309429
905.539063 0.286974
904.385742 0.286234
903.231445 0.304482
902.077148 0.295603
900.922852 0.313163
899.768555 0.304963
898.613281 0.311672
897.458008 0.322443
896.302734 0.327114
895.146484 0.321627
893.991211 0.320203
892.834961 0.345176
891.678711 0.371491
890.521484 0.359910
889.364258 0.401767
888.207031 0.405738
887.049805 0.417819
885.892578 0.415025
884.734375 0.454131
883.576172 0.437817
882.417969 0.474874
881.258789 0.448432
880.099609 0.467241
878.940430 0.457688
877.781250 0.445441
876.621094 0.443994
875.461914 0.433779
874.301758 0.418171
873.140625 0.417406
871.980469 0.395742
870.819336 0.382849
869.658203 0.366593
868.496094 0.370555
867.334961 0.366433
866.172852 0.366353
865.010742 0.364253
863.847656 0.354750
862.685547 0.355345
861.522461 0.368052
860.359375 0.349809
859.195313 0.341662
858.031250 0.348311
856.867188 0.347563
855.703125 0.360257
854.539063 0.347411
853.374023 0.332555
852.208984 0.351289
851.043945 0.346512
849.877930 0.341065
848.711914 0.359114
847.545898 0.347627
846.379883 0.358286
845.212891 0.350829
844.046875 0.338680
842.879883 0.366767
841.711914 0.381435
840.544922 0.371298
839.376953 0.381938
838.208008 0.383864
837.040039 0.403203
835.871094 0.448649
834.702148 0.470643
833.533203 0.529441
832.364258 0.611634
831.194336 0.698475
830.024414 0.794642
828.854492 0.893441
827.683594 0.982168
826.513672 1.000000
825.342773 0.998443
824.170898 0.974838
823.000000 0.915171
821.828125 0.858202
820.656250 0.765200
819.483398 0.703616
818.311523 0.629377
817.138672 0.568517
815.965820 0.512353
814.791992 0.475556
813.619141 0.434774
812.445313 0.418011
811.270508 0.390591
810.096680 0.377843
808.921875 0.372430
807.747070 0.355695
806.572266 0.362276
805.396484 0.346217
804.221680 0.354128
803.045898 0.337413
801.869141 0.338003
800.693359 0.346576
799.516602 0.346500
798.339844 0.345093
797.162109 0.323744
795.985352 0.330983
794.807617 0.336226
793.628906 0.324193
792.451172 0.348032
791.272461 0.349947
790.093750 0.343231
788.915039 0.331207
787.735352 0.351705
786.556641 0.348310
785.375977 0.332977
784.196289 0.342850
783.015625 0.336144
781.835938 0.365235
780.654297 0.338646
779.473633 0.329957
778.291992 0.333196
777.110352 0.327824
775.928711 0.319143
774.747070 0.322382
773.564453 0.330252
772.381836 0.336134
771.199219 0.339367
770.015625 0.327386
768.832031 0.349796
767.648438 0.356329
766.464844 0.374756
765.280273 0.368725
764.095703 0.393087
762.911133 0.392999
761.725586 0.425269
760.541016 0.431776
759.355469 0.473924
758.168945 0.518692
756.983398 0.527153
755.796875 0.549463
754.610352 0.561211
753.422852 0.521526
752.236328 0.512181
751.048828 0.458685
749.861328 0.446063
748.672852 0.438718
747.485352 0.398446
746.296875 0.377286
745.107422 0.396292
743.918945 0.372511
742.729492 0.371111
741.540039 0.361818
740.349609 0.360422
739.160156 0.345875
737.969727 0.322130
736.779297 0.323373
735.587891 0.321986
734.397461 0.327169
733.206055 0.311989
732.013672 0.317829
730.822266 0.304627
729.629883 0.311779
728.437500 0.295960
727.244141 0.282772
726.051758 0.305010
724.858398 0.282644
723.665039 0.279303
722.470703 0.282517
721.276367 0.287697
720.082031 0.274528
718.887695 0.297393
717.693359 0.291432
716.498047 0.282200
715.302734 0.291955
714.106445 0.285999
712.911133 0.297058
711.714844 0.298300
710.517578 0.281882
709.321289 0.305358
708.124023 0.302020
706.926758 0.295416
705.729492 0.299924
704.531250 0.288750
703.333008 0.296523
702.134766 0.319310
700.936523 0.304223
699.737305 0.302849
698.538086 0.332797
697.338867 0.314455
696.138672 0.330690
694.938477 0.324746
693.738281 0.318805
692.538086 0.318733
691.336914 0.332346
690.135742 0.314028
688.934570 0.332847
687.732422 0.331469
686.531250 0.324232
685.328125 0.330017
684.125977 0.329291
682.923828 0.354591
681.720703 0.325889
680.516602 0.336871
679.313477 0.339395
678.109375 0.330868
676.905273 0.334692
675.701172 0.338515
674.496094 0.372216
673.291992 0.357195
672.085938 0.384384
670.880859 0.353137
669.674805 0.356302
668.468750 0.384122
667.262695 0.352897
666.055664 0.357356
664.849609 0.346900
663.642578 0.344228
662.434570 0.337669
661.227539 0.345367
660.019531 0.317432
658.810547 0.340676
657.602539 0.320525
656.393555 0.343110
655.184570 0.343032
653.975586 0.322247
652.765625 0.338994
651.555664 0.338917
650.345703 0.320087
649.134766 0.318721
647.924805 0.319940
646.712891 0.315344
645.501953 0.307519
644.291016 0.313262
643.079102 0.322877
641.866211 0.315056
640.654297 0.315629
639.441406 0.306522
638.228516 0.302581
637.015625 0.308962
635.801758 0.324368
634.587891 0.318491
633.374023 0.322930
632.160156 0.313190
630.945313 0.327292
629.730469 0.313691
628.514648 0.328430
627.299805 0.326423
626.083984 0.329567
624.868164 0.333996
623.651367 0.326199
622.435547 0.346707
621.218750 0.354988
620.000977 0.349120
618.784180 0.357396
617.566406 0.369524
616.347656 0.356589
615.129883 0.386698
613.911133 0.350645
612.692383 0.345428
611.473633 0.332510
610.253906 0.342060
609.034180 0.381120
607.814453 0.362429
606.594727 0.381585
605.374023 0.375727
604.153320 0.386538
602.931641 0.364659
601.710938 0.356245
600.489258 0.345273
599.267578 0.338148
598.044922 0.332948
596.822266 0.316228
595.599609 0.325754
594.376953 0.319281
593.153320 0.328162
591.929688 0.310819
590.706055 0.303074
589.481445 0.308757
588.257813 0.295904
587.032227 0.308614
585.807617 0.302155
584.582031 0.303362
583.356445 0.294991
582.130859 0.301306
580.905273 0.306981
579.678711 0.308824
578.452148 0.313217
577.224609 0.318885
575.997070 0.325187
574.769531 0.317462
573.541992 0.308465
572.313477 0.323049
571.084961 0.293033
569.856445 0.319077
568.627930 0.335558
567.398438 0.325931
566.168945 0.317582
564.939453 0.341687
563.708984 0.327612
562.478516 0.334532
561.248047 0.309020
560.016602 0.310855
558.785156 0.311418
557.553711 0.301815
556.322266 0.311908
555.089844 0.327713
553.857422 0.309223
552.625000 0.311690
551.391602 0.300828
550.158203 0.309641
548.924805 0.326062
547.690430 0.324717
546.457031 0.304351
545.222656 0.303646
543.987305 0.320687
542.752930 0.321246
541.517578 0.307234
540.281250 0.333129
539.045898 0.332417
537.809570 0.315881
536.573242 0.301251
535.335938 0.311304
534.099609 0.303640
532.861328 0.323806
531.624023 0.299703
530.385742 0.298369
529.148438 0.322314
527.909180 0.312129
526.670898 0.302581
525.431641 0.323350
524.192383 0.325169
522.952148 0.312467
521.712891 0.311132
520.472656 0.315475
519.231445 0.320447
517.991211 0.320372
516.750000 0.307056
515.508789 0.322742
514.266602 0.334640
513.024414 0.317550
511.782227 0.330073
510.540039 0.328106
509.296875 0.311659
508.053711 0.337393
506.810547 0.327245
505.566406 0.342896
504.322266 0.323945
503.078125 0.323868
501.833008 0.321906
500.587891 0.326858
499.342773 0.331808
498.097656 0.326704
496.851563 0.341701
495.605469 0.352924
494.359375 0.355352
493.112305 0.354640
491.865234 0.341378
490.618164 0.355099
489.370117 0.357524
488.123047 0.371862
486.874023 0.372401
485.625977 0.378580
484.376953 0.374104
483.127930 0.377148
481.878906 0.372674
480.628906 0.407026
479.378906 0.397538
478.128906 0.408710
476.877930 0.414244
475.626953 0.429160
474.375977 0.410920
473.125000 0.438961
471.873047 0.439481
470.621094 0.464376
469.368164 0.462391
468.115234 0.471652
466.862305 0.507139
465.609375 0.530745
464.355469 0.578062
463.102539 0.596647
461.847656 0.652037
460.593750 0.693676
459.338867 0.743404
458.083984 0.768166
456.828125 0.838422
455.572266 0.855049
454.316406 0.877274
453.060547 0.898243
451.803711 0.836374
450.546875 0.793836
449.290039 0.719572
448.032227 0.676460
446.774414 0.611592
445.516602 0.538669
444.257813 0.534808
442.999023 0.522246
441.740234 0.482961
440.481445 0.463581
439.221680 0.454772
437.961914 0.452178
436.701172 0.444617
435.441406 0.454444
434.180664 0.445024
432.918945 0.450502
431.658203 0.465903
430.396484 0.477575
429.133789 0.474979
427.872070 0.482304
426.609375 0.450579
425.346680 0.429403
424.083008 0.439211
422.819336 0.428576
421.555664 0.396275
420.291016 0.400513
419.027344 0.396702
417.762695 0.397225
416.497070 0.379190
415.231445 0.374769
413.965820 0.379625
412.700195 0.401168
411.433594 0.385003
410.166992 0.368228
408.900391 0.368139
407.632813 0.387193
406.365234 0.375986
405.097656 0.365402
403.830078 0.360994
402.561523 0.378180
401.291992 0.372537
400.023438 0.380463
398.753906 0.368657
397.484375 0.369184
396.214844 0.392509
394.944336 0.380709
393.673828 0.394781
392.402344 0.373134
391.130859 0.399513
389.859375 0.395108
388.587891 0.390089
387.315430 0.382612
386.042969 0.398509
384.770508 0.388574
383.497070 0.382947
382.223633 0.385926
380.950195 0.394433
379.676758 0.388194
378.402344 0.385643
377.126953 0.385548
375.852539 0.398957
374.577148 0.389041
373.301758 0.392013
372.025391 0.382104
370.749023 0.399179
369.472656 0.401533
368.196289 0.402047
366.918945 0.408689
365.641602 0.412264
364.363281 0.409100
363.085938 0.420633
361.807617 0.419917
360.528320 0.412470
359.249023 0.405638
357.969727 0.417160
356.690430 0.425619
355.410156 0.424902
354.129883 0.409517
352.849609 0.421637
351.568359 0.421533
350.287109 0.422040
349.005859 0.437812
347.723633 0.413895
346.441406 0.435154
345.159180 0.433826
343.875977 0.439209
342.592773 0.440320
341.309570 0.442650
340.026367 0.408404
338.742188 0.429633
337.457031 0.438056
336.172852 0.438556
334.887695 0.446363
333.602539 0.445035
332.316406 0.429099
331.030273 0.432644
329.744141 0.440445
328.457031 0.426955
327.170898 0.432929
325.882813 0.449234
324.595703 0.438791
323.307617 0.412555
322.019531 0.439180
320.730469 0.427532
319.441406 0.441389
318.152344 0.443100
316.863281 0.436921
315.573242 0.450765
314.283203 0.435489
312.992188 0.444476
311.701172 0.446790
310.410156 0.462436
309.119141 0.440507
307.827148 0.453118
306.535156 0.491158
305.242188 0.474687
303.950195 0.446118
302.656250 0.484737
301.363281 0.461624
300.069336 0.483888
298.775391 0.482557
297.480469 0.497550
296.186523 0.502864
294.891602 0.509384
293.595703 0.492341
292.299805 0.506712
291.003906 0.515641
289.708008 0.526980
288.411133 0.539521
287.114258 0.556881
285.816406 0.598360
284.518555 0.562630
283.220703 0.599867
281.922852 0.611167
280.624023 0.615230
279.325195 0.606038
278.025391 0.608294
276.725586 0.624397
275.425781 0.596548
274.125977 0.577139
272.825195 0.563154
271.523438 0.579853
270.222656 0.566476
268.920898 0.590380
267.619141 0.592634
266.316406 0.604501
265.013672 0.602545
263.710938 0.612001
262.408203 0.608843
261.104492 0.615291
259.799805 0.662544
258.496094 0.668975
257.191406 0.686199
255.886719 0.730400
254.581055 0.738007
253.275391 0.754001
251.969727 0.804142
250.663086 0.831492
249.356445 0.864219
248.049805 0.926867
246.742188 0.957756
245.434570 1.007181
244.126953 1.027863
242.818359 1.036571
241.509766 1.123013
240.201172 1.095822
238.891602 1.103310
237.582031 1.122147
236.271484 1.087210
234.961914 1.088722
233.650391 1.059783
232.339844 1.023695
231.028320 1.019254
229.716797 1.017797
228.405273 0.998448
227.092773 0.984476
225.779297 0.946069
224.466797 0.932712
223.153320 0.962262
221.839844 0.945930
220.525391 0.957595
219.210938 0.980566
217.896484 0.931505
216.581055 0.958636
215.265625 0.977424
213.950195 1.027723
212.633789 0.997132
211.317383 0.994495
210.000977 1.000179
208.683594 1.010613
207.366211 1.046583
206.048828 1.043341
204.730469 1.103622
203.412109 1.102148
202.092773 1.178403
200.773438 1.189366
199.454102 1.244208
198.133789 1.284199
196.814453 1.360919
195.493164 1.375377
194.172852 1.473359
192.851563 1.532793
191.529297 1.607589
190.208008 1.666955
188.885742 1.748779
187.562500 1.806892
186.239258 1.869116
184.916016 1.938402
183.592773 1.989916
182.268555 2.008305
180.944336 2.105270
179.619141 2.099989
178.293945 2.101207
176.968750 2.126631
175.643555 2.136694
174.317383 2.129049
172.990234 2.120817
171.664063 2.144437
170.336914 2.132667
169.008789 2.152734
167.680664 2.163360
166.352539 2.148058
165.024414 2.165747
163.695313 2.138086
162.366211 2.210515
161.036133 2.225230
159.706055 2.251704
158.375977 2.266986
157.044922 2.304607
155.713867 2.383948
154.382813 2.425043
153.050781 2.496670
151.718750 2.530663
150.385742 2.576382
149.053711 2.646148
147.719727 2.734659
146.386719 2.773244
145.052734 2.771329
143.717773 2.814574
142.383789 2.849586
141.048828 2.863477
139.712891 2.903144
138.377930 2.918769
137.041016 2.944342
135.705078 2.901977
134.368164 2.943345
133.031250 2.916803
131.693359 2.908411
130.355469 2.922251
129.017578 2.932574
127.678711 2.899630
126.339844 2.932161
125.000977 2.933706
123.661133 2.950437
122.321289 2.892410
120.980469 2.923154
119.639648 2.913608
118.298828 2.957164
116.957031 2.931862
115.615234 2.963142
114.273438 2.955925
112.930664 2.984848
111.587891 2.964225
110.244141 2.965167
108.900391 2.946888
107.556641 2.863409
106.211914 2.833525
104.867188 2.700659
103.522461 2.505034
102.176758 2.331617
100.831055 2.068170
99.484375 1.831025
98.137695 1.574251
