3198.529297 0.008161
3197.824219 0.009415
3197.119141 0.008158
3196.414063 0.006902
3195.708008 0.005646
3195.001953 0.006900
3194.296875 0.008153
3193.590820 0.010660
3192.884766 0.010659
3192.178711 0.011911
3191.472656 0.005641
3190.765625 0.006893
3190.059570 0.008146
3189.352539 0.008771
3188.646484 0.008143
3187.939453 0.008142
3187.232422 0.007514
3186.525391 0.005635
3185.818359 0.009390
3185.111328 0.008137
3184.404297 0.007510
3183.696289 0.006883
3182.989258 0.007507
3182.281250 0.009382
3181.573242 0.006254
3180.865234 0.006878
3180.157227 0.007502
3179.449219 0.006251
3178.741211 0.008125
3178.033203 0.008124
3177.324219 0.005623
3176.616211 0.006872
3175.907227 0.011243
3175.198242 0.006870
3174.489258 0.011864
3173.780273 0.009365
3173.071289 0.010611
3172.362305 0.008113
3171.652344 0.006864
3170.943359 0.006239
3170.233398 0.006862
3169.523438 0.006861
3168.814453 0.005612
3168.104492 0.006858
3167.394531 0.008728
3166.683594 0.008103
3165.973633 0.003739
3165.263672 0.008100
3164.552734 0.008722
3163.841797 0.007475
3163.130859 0.007474
3162.420898 0.006850
3161.709961 0.009961
3160.998047 0.010582
3160.287109 0.003734
3159.576172 0.005601
3158.864258 0.008088
3158.153320 0.006221
3157.441406 0.007464
3156.729492 0.009950
3156.017578 0.008083
3155.305664 0.008704
3154.593750 0.005594
3153.880859 0.008079
3153.168945 0.009321
3152.456055 0.008077
3151.744141 0.009318
3151.031250 0.008074
3150.318359 0.007452
3149.605469 0.009313
3148.892578 0.006828
3148.178711 0.009310
3147.465820 0.006826
3146.751953 0.005584
3146.039063 0.006824
3145.325195 0.008063
3144.611328 0.006201
3143.897461 0.003720
3143.183594 0.007439
3142.468750 0.008058
3141.754883 0.008057
3141.041016 0.008675
3140.326172 0.008673
3139.611328 0.006814
3138.896484 0.008671
3138.181641 0.009288
3137.466797 0.008668
3136.751953 0.008047
3136.037109 0.010521
3135.321289 0.008663
3134.605469 0.010518
3133.890625 0.008660
3133.174805 0.003711
3132.458984 0.009276
3131.743164 0.006183
3131.027344 0.011746
3130.310547 0.009889
3129.594727 0.009888
3128.877930 0.009886
3128.161133 0.002471
3127.445313 0.006177
3126.728516 0.009263
3126.010742 0.009262
3125.293945 0.008643
3124.577148 0.009876
3123.859375 0.008023
3123.142578 0.007405
3122.424805 0.009254
3121.707031 0.006785
3120.989258 0.006167
3120.271484 0.008016
3119.553711 0.008631
3118.835938 0.011095
3118.117188 0.010477
3117.399414 0.008011
3116.680664 0.006777
3115.961914 0.006160
3115.243164 0.010470
3114.524414 0.010468
3113.805664 0.011082
3113.086914 0.009234
3112.367188 0.010463
3111.648438 0.005538
3110.928711 0.006153
3110.208984 0.010458
3109.489258 0.008611
3108.769531 0.009839
3108.049805 0.010452
3107.329102 0.007992
3106.609375 0.009834
3105.888672 0.006145
3105.168945 0.013517
3104.448242 0.005529
3103.727539 0.009213
3103.006836 0.011054
3102.285156 0.006754
3101.564453 0.012278
3100.843750 0.008593
3100.122070 0.009205
3099.400391 0.009817
3098.678711 0.011656
3097.957031 0.010427
3097.235352 0.011652
3096.513672 0.011650
3095.791992 0.008583
3095.069336 0.012259
3094.346680 0.012257
3093.625000 0.008578
3092.902344 0.007351
3092.179688 0.007963
3091.457031 0.011023
3090.733398 0.009184
3090.010742 0.006122
3089.287109 0.009181
3088.564453 0.009792
3087.840820 0.011014
3087.117188 0.012235
3086.393555 0.009787
3085.669922 0.009173
3084.946289 0.012840
3084.221680 0.011615
3083.498047 0.014058
3082.773438 0.011000
3082.048828 0.010998
3081.324219 0.012218
3080.599609 0.008551
3079.875000 0.012825
3079.149414 0.014044
3078.424805 0.012820
3077.699219 0.009766
3076.974609 0.010375
3076.249023 0.011593
3075.523438 0.011591
3074.797852 0.012199
3074.071289 0.010367
3073.345703 0.009146
3072.619141 0.009144
3071.893555 0.009143
3071.166992 0.008532
3070.440430 0.012795
3069.713867 0.010356
3068.987305 0.014618
3068.259766 0.010962
3067.533203 0.010351
3066.805664 0.012175
3066.079102 0.010347
3065.351563 0.010954
3064.624023 0.011560
3063.896484 0.008517
3063.168945 0.010340
3062.440430 0.009122
3061.712891 0.009728
3060.984375 0.010942
3060.255859 0.012764
3059.527344 0.011546
3058.798828 0.008506
3058.070313 0.011542
3057.341797 0.011540
3056.613281 0.013360
3055.883789 0.010929
3055.154297 0.013355
3054.424805 0.009104
3053.695313 0.010316
3052.965820 0.014561
3052.236328 0.013952
3051.506836 0.010917
3050.776367 0.013947
3050.046875 0.010307
3049.316406 0.015760
3048.585938 0.009697
3047.855469 0.009089
3047.125000 0.013329
3046.393555 0.008480
3045.663086 0.010296
3044.931641 0.012716
3044.201172 0.013924
3043.469727 0.013317
3042.738281 0.011499
3042.006836 0.012707
3041.275391 0.014519
3040.542969 0.014517
3039.811523 0.012095
3039.079102 0.016325
3038.346680 0.009673
3037.614258 0.013902
3036.881836 0.010273
3036.149414 0.013897
3035.416992 0.015102
3034.683594 0.012080
3033.951172 0.014493
3033.217773 0.015698
3032.484375 0.013884
3031.750977 0.013278
3031.017578 0.015086
3030.284180 0.012670
3029.549805 0.013874
3028.816406 0.012665
3028.082031 0.013869
3027.347656 0.013264
3026.613281 0.013864
3025.878906 0.012054
3025.144531 0.017474
3024.410156 0.015061
3023.674805 0.016866
3022.939453 0.015056
3022.205078 0.013849
3021.469727 0.016255
3020.734375 0.014446
3019.999023 0.015045
3019.262695 0.013839
3018.527344 0.015040
3017.791016 0.018646
3017.054688 0.015034
3016.318359 0.016234
3015.582031 0.012023
3014.845703 0.015026
3014.109375 0.017427
3013.373047 0.019827
3012.635742 0.014417
3011.898438 0.017417
3011.161133 0.013811
3010.424805 0.016810
3009.686523 0.012606
3008.949219 0.022206
3008.211914 0.017401
3007.473633 0.010799
3006.736328 0.018594
3005.998047 0.016192
3005.259766 0.017388
3004.521484 0.016186
3003.782227 0.016783
3003.043945 0.016780
3002.305664 0.015578
3001.566406 0.019170
3000.827148 0.021562
3000.087891 0.016168
2999.348633 0.022153
2998.609375 0.021550
2997.870117 0.017955
2997.129883 0.019747
2996.389648 0.017350
2995.650391 0.018543
2994.910156 0.020932
2994.169922 0.020330
2993.429688 0.019131
2992.688477 0.022714
2991.948242 0.022112
2991.207031 0.026888
2990.465820 0.025688
2989.725586 0.020308
2988.983398 0.024484
2988.242188 0.021494
2987.500977 0.023281
2986.759766 0.020293
2986.017578 0.020886
2985.275391 0.026251
2984.533203 0.025650
2983.791016 0.022067
2983.048828 0.026833
2982.306641 0.029809
2981.563477 0.025035
2980.821289 0.024434
2980.078125 0.030388
2979.334961 0.027999
2978.591797 0.027994
2977.848633 0.030371
2977.105469 0.032747
2976.361328 0.030360
2975.618164 0.027378
2974.874023 0.036894
2974.129883 0.035697
2973.385742 0.032716
2972.641602 0.031521
2971.897461 0.036272
2971.152344 0.037454
2970.408203 0.041608
2969.663086 0.041600
2968.917969 0.038622
2968.172852 0.041585
2967.427734 0.039201
2966.682617 0.045132
2965.936523 0.046905
2965.191406 0.041553
2964.445313 0.048074
2963.699219 0.051032
2962.953125 0.055176
2962.207031 0.056945
2961.460938 0.049817
2960.713867 0.053959
2959.967773 0.058691
2959.220703 0.048604
2958.473633 0.054521
2957.726563 0.061621
2956.979492 0.053908
2956.232422 0.055675
2955.484375 0.063955
2954.737305 0.065127
2953.989258 0.060379
2953.241211 0.069837
2952.493164 0.064498
2951.745117 0.065669
2950.997070 0.066840
2950.248047 0.071559
2949.500000 0.064450
2948.750977 0.062664
2948.001953 0.070336
2947.252930 0.076823
2946.503906 0.064401
2945.754883 0.066752
2945.004883 0.069102
2944.255859 0.068498
2943.505859 0.069666
2942.755859 0.067882
2942.005859 0.069049
2941.255859 0.066676
2940.504883 0.065484
2939.754883 0.064881
2939.003906 0.066638
2938.252930 0.071932
2937.502930 0.071329
2936.750977 0.063653
2936.000000 0.068945
2935.249023 0.064808
2934.497070 0.060083
2933.746094 0.057716
2932.994141 0.061238
2932.242188 0.069468
2931.490234 0.070043
2930.738281 0.061791
2929.985352 0.061780
2929.233398 0.062944
2928.480469 0.064697
2927.727539 0.060568
2926.974609 0.060557
2926.221680 0.062896
2925.468750 0.066998
2924.715820 0.061110
2923.961914 0.067560
2923.208008 0.062261
2922.455078 0.063424
2921.701172 0.065173
2920.946289 0.068683
2920.192383 0.063974
2919.438477 0.059268
2918.683594 0.068644
2917.928711 0.065698
2917.173828 0.067444
2916.418945 0.073295
2915.664063 0.072109
2914.909180 0.078542
2914.153320 0.067393
2913.398438 0.073825
2912.642578 0.071468
2911.886719 0.066183
2911.130859 0.071440
2910.375000 0.073183
2909.619141 0.070828
2908.862305 0.070229
2908.105469 0.077822
2907.349609 0.070202
2906.592773 0.067849
2905.835938 0.074268
2905.078125 0.068407
2904.321289 0.074240
2903.563477 0.077732
2902.806641 0.078302
2902.048828 0.080039
2901.291016 0.071846
2900.533203 0.074169
2899.774414 0.078242
2899.016602 0.075891
2898.257813 0.078211
2897.500000 0.075862
2896.741211 0.077014
2895.982422 0.084000
2895.222656 0.076402
2894.463867 0.081635
2893.705078 0.080453
2892.945313 0.075775
2892.185547 0.074012
2891.425781 0.083320
2890.666016 0.083304
2889.906250 0.089112
2889.146484 0.078031
2888.385742 0.075105
2887.625000 0.073926
2886.864258 0.083223
2886.103516 0.080880
2885.342773 0.077955
2884.582031 0.077940
2883.821289 0.085485
2883.059570 0.076747
2882.297852 0.084289
2881.536133 0.082530
2880.774414 0.086581
2880.012695 0.084241
2879.250977 0.082482
2878.488281 0.085950
2877.726563 0.085353
2876.963867 0.085917
2876.201172 0.083579
2875.438477 0.081821
2874.674805 0.081225
2873.912109 0.080049
2873.149414 0.080614
2872.385742 0.085237
2871.622070 0.083481
2870.858398 0.075930
2870.094727 0.081710
2869.330078 0.090385
2868.566406 0.077624
2867.801758 0.094404
2867.038086 0.086279
2866.273438 0.086262
2865.508789 0.091455
2864.743164 0.086808
2863.978516 0.083319
2863.212891 0.089088
2862.448242 0.087335
2861.682617 0.098884
2860.916992 0.084410
2860.151367 0.095377
2859.384766 0.086111
2858.619141 0.090717
2857.852539 0.088966
2857.086914 0.087794
2856.320313 0.091241
2855.553711 0.085450
2854.786133 0.095247
2854.019531 0.099268
2853.251953 0.091747
2852.485352 0.095768
2851.717773 0.087097
2850.950195 0.082466
2850.182617 0.089946
2849.414063 0.100881
2848.646484 0.085876
2847.877930 0.091622
2847.110352 0.088147
2846.341797 0.085826
2845.573242 0.084657
2844.803711 0.095005
2844.035156 0.084048
2843.266602 0.094392
2842.497070 0.085166
2841.727539 0.087451
2840.958008 0.077080
2840.188477 0.083966
2839.418945 0.082224
2838.648438 0.091406
2837.878906 0.083342
2837.108398 0.085049
2836.337891 0.081011
2835.567383 0.088462
2834.795898 0.088445
2834.025391 0.083260
2833.254883 0.090133
2832.483398 0.087819
2831.711914 0.088949
2830.940430 0.082621
2830.168945 0.079162
2829.397461 0.080294
2828.625000 0.080851
2827.852539 0.081409
2827.081055 0.080246
2826.308594 0.077938
2825.536133 0.079069
2824.762695 0.073898
2823.990234 0.087056
2823.216797 0.079022
2822.444336 0.078434
2821.670898 0.086432
2820.897461 0.092138
2820.123047 0.080676
2819.349609 0.071507
2818.576172 0.076641
2817.801758 0.076626
2817.027344 0.081756
2816.252930 0.076595
2815.478516 0.076580
2814.704102 0.074279
2813.928711 0.083405
2813.154297 0.072537
2812.378906 0.082230
2811.603516 0.068511
2810.828125 0.069639
2810.052734 0.071908
2809.276367 0.075318
2808.500977 0.071880
2807.724609 0.066732
2806.948242 0.072992
2806.171875 0.070697
2805.395508 0.073533
2804.619141 0.067249
2803.841797 0.063247
2803.064453 0.073489
2802.288086 0.066070
2801.510742 0.064918
2800.733398 0.067183
2799.955078 0.068877
2799.177734 0.069432
2798.399414 0.058607
2797.621094 0.065423
2796.842773 0.063703
2796.064453 0.063122
2795.286133 0.057424
2794.507813 0.065939
2793.728516 0.063652
2792.950195 0.068754
2792.170898 0.065331
2791.391602 0.064182
2790.611328 0.062466
2789.832031 0.061886
2789.052734 0.059035
2788.272461 0.051645
2787.492188 0.060146
2786.711914 0.060134
2785.931641 0.056719
2785.151367 0.061245
2784.370117 0.063500
2783.588867 0.056118
2782.808594 0.052140
2782.027344 0.053263
2781.246094 0.057784
2780.463867 0.049843
2779.682617 0.056062
2778.900391 0.054919
2778.119141 0.058304
2777.336914 0.059424
2776.554688 0.057715
2775.771484 0.049218
2774.989258 0.058257
2774.206055 0.052025
2773.423828 0.048057
2772.640625 0.058222
2771.857422 0.054255
2771.074219 0.053679
2770.290039 0.049713
2769.506836 0.053657
2768.722656 0.049129
2767.938477 0.052506
2767.154297 0.051931
2766.370117 0.051921
2765.585938 0.053039
2764.800781 0.056413
2764.016602 0.051326
2763.231445 0.054135
2762.446289 0.055815
2761.661133 0.051858
2760.875000 0.043958
2760.089844 0.054091
2759.303711 0.053517
2758.518555 0.055196
2757.732422 0.056311
2756.945313 0.046729
2756.159180 0.043342
2755.373047 0.046147
2754.585938 0.057391
2753.798828 0.052879
2753.012695 0.056243
2752.224609 0.046672
2751.437500 0.049474
2750.650391 0.043843
2749.862305 0.050578
2749.074219 0.054501
2748.287109 0.049434
2747.499023 0.055602
2746.709961 0.053344
2745.921875 0.048281
2745.132813 0.049955
2744.344727 0.053873
2743.555664 0.051057
2742.766602 0.050486
2741.977539 0.055523
2741.187500 0.051587
2740.398438 0.056622
2739.608398 0.047082
2738.818359 0.056038
2738.028320 0.048183
2737.238281 0.051534
2736.448242 0.052084
2735.657227 0.050394
2734.866211 0.060460
2734.075195 0.054851
2733.284180 0.057638
2732.493164 0.048115
2731.702148 0.050342
2730.910156 0.054806
2730.119141 0.048645
2729.327148 0.047517
2728.535156 0.048066
2727.743164 0.049732
2726.950195 0.045812
2726.158203 0.048595
2725.365234 0.044676
2724.572266 0.048017
2723.779297 0.041308
2722.986328 0.044091
2722.193359 0.049661
2721.399414 0.047420
2720.606445 0.043506
2719.812500 0.049631
2719.018555 0.046833
2718.224609 0.046266
2717.430664 0.049043
2716.635742 0.044576
2715.840820 0.046238
2715.046875 0.045114
2714.251953 0.041764
2713.456055 0.038972
2712.661133 0.045087
2711.866211 0.045078
2711.070313 0.043399
2710.274414 0.045059
2709.478516 0.046718
2708.682617 0.041704
2707.886719 0.037804
2707.089844 0.041131
2706.293945 0.050570
2705.497070 0.043892
2704.700195 0.046105
2703.903320 0.043319
2703.105469 0.038868
2702.308594 0.044967
2701.510742 0.044402
2700.712891 0.038844
2699.915039 0.053261
2699.117188 0.044930
2698.319336 0.045475
2697.520508 0.040476
2696.722656 0.044348
2695.923828 0.036025
2695.125000 0.043775
2694.326172 0.041550
2693.526367 0.044311
2692.727539 0.043748
2691.927734 0.042632
2691.127930 0.042623
2690.328125 0.046488
2689.528320 0.038179
2688.728516 0.039831
2687.927734 0.042588
2687.126953 0.040920
2686.326172 0.049204
2685.525391 0.049194
2684.724609 0.047526
2683.923828 0.048069
2683.122070 0.045849
2682.321289 0.048049
2681.519531 0.041965
2680.717773 0.044717
2679.915039 0.044156
2679.113281 0.040835
2678.310547 0.037517
2677.508789 0.043025
2676.706055 0.042464
2675.903320 0.048521
2675.099609 0.051267
2674.296875 0.051256
2673.493164 0.052348
2672.690430 0.050684
2671.886719 0.037454
2671.083008 0.042403
2670.278320 0.044596
2669.474609 0.045137
2668.669922 0.044578
2667.865234 0.046219
2667.060547 0.046759
2666.255859 0.040700
2665.451172 0.049489
2664.646484 0.047280
2663.840820 0.043972
2663.035156 0.045612
2662.229492 0.048349
2661.423828 0.045593
2660.618164 0.044485
2659.811523 0.041730
2659.004883 0.042270
2658.199219 0.040066
2657.391602 0.043350
2656.584961 0.048827
2655.778320 0.043332
2655.033203 0.047265
2654.970703 0.040032
2654.227539 0.038472
2654.164063 0.048796
2653.421875 0.040663
2653.356445 0.043853
2652.616211 0.037910
2652.548828 0.042748
2651.810547 0.043946
2651.740234 0.044930
2651.004883 0.044488
2650.932617 0.042182
2650.198242 0.045579
2650.124023 0.053127
2649.392578 0.042278
2649.316406 0.050378
2648.585938 0.043918
2648.507813 0.040513
2647.779297 0.038422
2647.699219 0.040504
2646.972656 0.047745
2646.889648 0.038307
2646.166016 0.037312
2646.081055 0.042129
2645.359375 0.044986
2645.271484 0.048137
2644.552734 0.040591
2644.461914 0.045392
2643.745117 0.041133
2643.652344 0.050304
2642.938477 0.042771
2642.842773 0.044827
2642.130859 0.043861
2642.033203 0.040445
2641.323242 0.044950
2641.222656 0.042075
2640.515625 0.040010
2640.413086 0.048076
2639.708008 0.040003
2639.602539 0.043150
2638.899414 0.045476
2638.791992 0.048056
2638.091797 0.043277
2637.981445 0.043678
2637.283203 0.042722
2637.169922 0.043123
2636.475586 0.049287
2636.359375 0.039839
2635.666992 0.044351
2635.547852 0.045287
2634.858398 0.043248
2634.736328 0.044187
2634.049805 0.044883
2633.924805 0.047995
2633.241211 0.041592
2633.113281 0.044713
2632.431641 0.047057
2632.300781 0.047975
2631.623047 0.046502
2631.489258 0.043059
2630.813477 0.042119
2630.676758 0.045230
2630.003906 0.038283
2629.864258 0.049034
2629.194336 0.045386
2629.051758 0.043576
2628.384766 0.050299
2628.238281 0.049013
2627.575195 0.050837
2627.425781 0.046280
2626.765625 0.047549
2626.612305 0.051170
2625.955078 0.049181
2625.798828 0.042995
2625.145508 0.043163
2624.985352 0.045163
2624.334961 0.040424
2624.171875 0.052225
2623.524414 0.046425
2623.358398 0.047319
2622.713867 0.041503
2622.543945 0.048397
2621.903320 0.050232
2621.729492 0.045668
2621.092773 0.043127
2620.916016 0.046745
2620.281250 0.049123
2620.100586 0.046735
2619.469727 0.052935
2619.286133 0.053245
2618.659180 0.049653
2618.471680 0.047802
2617.847656 0.049099
2617.656250 0.047249
2617.036133 0.049636
2616.840820 0.050496
2616.224609 0.045810
2616.025391 0.046686
2615.412109 0.049074
2615.209961 0.044505
2614.600586 0.052882
2614.394531 0.051549
2613.788086 0.048512
2613.578125 0.047741
2612.976563 0.052319
2612.762695 0.050985
2612.164063 0.053400
2611.946289 0.048805
2611.351563 0.052302
2611.129883 0.050963
2610.539063 0.049024
2610.312500 0.055289
2609.726563 0.043025
2609.496094 0.052025
2608.913086 0.049008
2608.678711 0.054723
2608.100586 0.051177
2607.862305 0.050378
2607.287109 0.042459
2607.044922 0.047118
2606.473633 0.047894
2606.227539 0.046566
2605.660156 0.045166
2605.409180 0.043849
2604.846680 0.048966
2604.591797 0.056830
2604.033203 0.050046
2603.773438 0.053030
2603.218750 0.050038
2602.955078 0.049772
2602.405273 0.042960
2602.136719 0.045434
2601.590820 0.047302
2601.318359 0.054077
2600.776367 0.048381
2600.500000 0.045415
2599.961914 0.042938
2599.680664 0.050270
2599.147461 0.049451
2598.861328 0.048097
2598.333008 0.046183
2598.042969 0.048087
2597.518555 0.045632
2597.222656 0.048077
2596.703125 0.042365
2596.403320 0.045366
2595.888672 0.047245
2595.583984 0.049136
2595.073242 0.043437
2594.763672 0.048046
2594.257813 0.049944
2593.943359 0.049115
2593.442383 0.046136
2593.123047 0.044787
2592.625977 0.048841
2592.302734 0.045857
2591.810547 0.046120
2591.482422 0.043150
2590.994141 0.047739
2590.661133 0.049072
2590.178711 0.046104
2589.839844 0.042592
2589.362305 0.050434
2589.018555 0.048512
2588.545898 0.046088
2588.197266 0.042574
2587.729492 0.046622
2587.375977 0.050646
2586.913086 0.048782
2586.554688 0.051713
2586.095703 0.049316
2585.732422 0.046316
2585.279297 0.044973
2584.910156 0.048998
2584.461914 0.048757
2584.087891 0.049526
2583.644531 0.053623
2583.265625 0.043057
2582.827148 0.049282
2582.443359 0.048428
2582.009766 0.051439
2581.620117 0.044114
2581.192383 0.045475
2580.796875 0.050559
2580.374023 0.046550
2579.973633 0.045170
2579.556641 0.054659
2579.150391 0.040860
2578.738281 0.051944
2578.327148 0.049988
2577.919922 0.051394
2577.503906 0.051590
2577.101563 0.050845
2576.679688 0.048355
2576.283203 0.049213
2575.855469 0.049419
2575.464844 0.042716
2575.031250 0.050482
2574.645508 0.050818
2574.207031 0.041880
2573.827148 0.048107
2573.381836 0.041334
2573.007813 0.048098
2572.557617 0.043472
2572.188477 0.044848
2571.732422 0.041316
2571.369141 0.052403
2570.907227 0.039161
2570.549805 0.048613
2570.082031 0.043980
2569.730469 0.045364
2569.256836 0.045579
2568.910156 0.048596
2568.430664 0.040208
2568.090820 0.052367
2567.605469 0.046095
2567.270508 0.050198
2566.779297 0.053051
2566.450195 0.046951
2565.953125 0.049289
2565.629883 0.043706
2565.125977 0.046600
2564.809570 0.042619
2564.299805 0.044448
2563.989258 0.050702
2563.472656 0.042832
2563.167969 0.047458
2562.646484 0.049782
2562.346680 0.044214
2561.819336 0.049771
2561.526367 0.049058
2560.992188 0.048690
2560.705078 0.044199
2560.164063 0.043330
2559.883789 0.047963
2559.336914 0.048668
2559.061523 0.046877
2558.508789 0.047588
2558.240234 0.052256
2557.680664 0.049716
2557.417969 0.045783
2556.852539 0.046498
2556.596680 0.046852
2556.024414 0.041679
2555.774414 0.047382
2555.195313 0.045944
2554.952148 0.053296
2554.367188 0.045934
2554.129883 0.048442
2553.538086 0.049661
2553.307617 0.047357
2552.708984 0.046447
2552.484375 0.048963
2551.878906 0.048038
2551.662109 0.044113
2551.049805 0.049095
2550.838867 0.047870
2550.219727 0.047484
2550.015625 0.048937
2549.390625 0.047473
2549.192383 0.048391
2548.560547 0.045329
2548.369141 0.052145
2547.730469 0.052784
2547.544922 0.048373
2546.899414 0.049574
2546.721680 0.047290
2546.069336 0.047431
2545.897461 0.046207
2545.238281 0.044757
2545.074219 0.046199
2544.407227 0.044747
2544.250000 0.045116
2543.576172 0.050063
2543.425781 0.052089
2542.745117 0.043129
2542.600586 0.053154
2541.913086 0.051105
2541.776367 0.049923
2541.082031 0.044175
2540.951172 0.055818
2540.250000 0.050018
2540.126953 0.050442
2539.417969 0.050539
2539.301758 0.054725
2538.585938 0.048400
2538.476563 0.053106
2537.752930 0.049453
2537.651367 0.052024
2536.920898 0.041468
2536.826172 0.047725
2536.087891 0.047305
2536.000000 0.052541
2535.254883 0.052077
2535.174805 0.054676
2534.421875 0.052597
2534.348633 0.050915
2533.587891 0.052585
2533.522461 0.049298
2532.754883 0.046201
2532.696289 0.043932
2531.920898 0.048845
2531.870117 0.049816
2531.086914 0.048834
2531.042969 0.053020
2530.252930 0.047762
2530.216797 0.046050
2529.418945 0.048812
2529.389648 0.047648
2528.583984 0.046149
2528.562500 0.048709
2527.749023 0.046669
2527.735352 0.049771
2526.914063 0.052491
2526.908203 0.052437
2526.081055 0.048239
2526.079102 0.050288
2525.253906 0.051408
2525.244141 0.048139
2524.425781 0.048747
2524.409180 0.049735
2523.597656 0.051914
2523.573242 0.054004
2522.769531 0.055063
2522.737305 0.050314
2521.941406 0.054518
2521.901367 0.055068
2521.113281 0.057715
2521.065430 0.053468
2520.285156 0.058773
2520.228516 0.048163
2519.456055 0.055023
2519.392578 0.057677
2518.627930 0.051274
2518.555664 0.051845
2517.798828 0.048595
2517.718750 0.053949
2516.969727 0.056595
2516.881836 0.049706
2516.140625 0.052848
2516.043945 0.051810
2515.311523 0.051771
2515.207031 0.051798
2514.481445 0.058698
2514.369141 0.057070
2513.651367 0.054419
2513.531250 0.054416
2512.822266 0.054409
2512.693359 0.051235
2511.992188 0.052266
2511.855469 0.051223
2511.162109 0.047991
2511.016602 0.049628
2510.332031 0.061844
2510.177734 0.050144
2509.500977 0.053837
2509.338867 0.053827
2508.670898 0.046366
2508.500000 0.050649
2507.839844 0.052218
2507.661133 0.058550
2507.008789 0.054873
2506.821289 0.052736
2506.177734 0.051667
2505.982422 0.050615
2505.346680 0.054853
2505.142578 0.052712
2504.515625 0.052180
2504.302734 0.049011
2503.683594 0.053235
2503.461914 0.056376
2502.852539 0.048435
2502.622070 0.053203
2502.020508 0.048426
2501.781250 0.052664
2501.188477 0.044693
2500.940430 0.048966
2500.356445 0.053196
2500.099609 0.054219
2499.524414 0.049463
2499.258789 0.056838
2498.691406 0.051050
2498.416992 0.051037
2497.859375 0.054762
2497.576172 0.057338
2497.026367 0.051031
2496.734375 0.055222
2496.193359 0.048896
2495.892578 0.054683
2495.360352 0.055794
2495.050781 0.054671
2494.527344 0.055784
2494.208008 0.054658
2493.694336 0.051524
2493.365234 0.053069
2492.860352 0.053639
2492.523438 0.054108
2492.027344 0.055222
2491.680664 0.052520
2491.193359 0.056274
2490.836914 0.050933
2490.359375 0.054140
2489.994141 0.054071
2489.525391 0.061560
2489.150391 0.052484
2488.691406 0.055181
2488.306641 0.048799
2487.856445 0.057824
2487.462891 0.055607
2487.022461 0.059404
2486.619141 0.047203
2486.187500 0.053560
2485.775391 0.054009
2485.352539 0.054080
2484.930664 0.049802
2484.517578 0.046119
2484.085938 0.053984
2483.682617 0.055120
2483.241211 0.056068
2482.846680 0.054050
2482.396484 0.053435
2482.011719 0.058808
2481.550781 0.048709
2481.175781 0.050322
2480.706055 0.056029
2480.339844 0.056138
2479.860352 0.051304
2479.503906 0.054539
2479.014648 0.053386
2478.667969 0.057176
2478.168945 0.049711
2477.832031 0.054519
2477.322266 0.059116
2476.995117 0.058213
2476.476563 0.054395
2476.158203 0.059261
2475.629883 0.053860
2475.322266 0.060837
2474.783203 0.054370
2474.485352 0.053950
2473.936523 0.050699
2473.647461 0.055526
2473.088867 0.061138
2472.810547 0.052872
2472.242188 0.053810
2471.973633 0.056034
2471.394531 0.057976
2471.135742 0.049153
2470.546875 0.055873
2470.297852 0.053899
2469.698242 0.055860
2469.459961 0.053889
2468.850586 0.054282
2468.622070 0.050181
2468.001953 0.054269
2467.784180 0.059678
2467.153320 0.052170
2466.946289 0.057027
2466.304688 0.055287
2466.107422 0.056488
2465.456055 0.052667
2465.268555 0.053311
2464.607422 0.054218
2464.429688 0.057523
2463.757813 0.051600
2463.590820 0.059622
2462.908203 0.054714
2462.751953 0.054863
2462.058594 0.055222
2461.913086 0.053798
2461.208984 0.047918
2461.073242 0.061698
2460.358398 0.057280
2460.233398 0.055887
2459.508789 0.053622
2459.394531 0.053768
2458.658203 0.055171
2458.554688 0.056393
2457.807617 0.052556
2457.713867 0.052167
2456.956055 0.054104
2456.874023 0.054791
2456.105469 0.056692
2456.033203 0.051621
2455.253906 0.051479
2455.193359 0.055824
2454.402344 0.051467
2454.352539 0.048442
2453.550781 0.055093
2453.511719 0.051591
2452.699219 0.056119
2452.670898 0.053687
2451.846680 0.050392
2451.829102 0.054729
2450.995117 0.054016
2450.988281 0.058402
2450.146484 0.050887
2450.142578 0.057339
2449.304688 0.060739
2449.290039 0.053121
2448.462891 0.050863
2448.436523 0.056266
2447.621094 0.053626
2447.583984 0.053446
2446.779297 0.052565
2446.730469 0.048245
2445.937500 0.063066
2445.876953 0.052383
2445.094727 0.058325
2445.023438 0.048741
2444.251953 0.050434
2444.169922 0.050285
2443.409180 0.056727
2443.315430 0.055456
2442.566406 0.053565
2442.460938 0.052852
2441.723633 0.048830
2441.606445 0.052321
2440.879883 0.056170
2440.751953 0.058006
2440.037109 0.054060
2439.897461 0.057474
2439.193359 0.049327
2439.041992 0.049178
2438.349609 0.051941
2438.186523 0.054342
2437.505859 0.055603
2437.331055 0.052776
2436.662109 0.059788
2436.475586 0.053798
2435.817383 0.051911
2435.619141 0.047062
2434.973633 0.052950
2434.763672 0.053773
2434.128906 0.052415
2433.907227 0.044455
2433.284180 0.057122
2433.050781 0.052714
2432.439453 0.058159
2432.194336 0.052184
2431.593750 0.049242
2431.336914 0.049589
2430.749023 0.051328
2430.479492 0.052676
2429.903320 0.057602
2429.622070 0.052147
2429.058594 0.054973
2428.764648 0.047489
2428.212891 0.051299
2427.907227 0.047477
2427.367188 0.055999
2427.048828 0.050046
2426.520508 0.048663
2426.191406 0.055192
2425.674805 0.054408
2425.333008 0.052084
2424.828125 0.054921
2424.473633 0.050525
2423.982422 0.047066
2423.615234 0.048451
2423.135742 0.055423
2422.755859 0.055139
2422.289063 0.050707
2421.897461 0.047913
2421.441406 0.053833
2421.038086 0.043266
2420.594727 0.051733
2420.177734 0.048405
2419.747070 0.053290
2419.318359 0.048908
2418.900391 0.047534
2418.458008 0.046837
2418.052734 0.052748
2417.597656 0.049399
2417.205078 0.059003
2416.737305 0.056589
2416.356445 0.049595
2415.876953 0.051946
2415.508789 0.050630
2415.015625 0.050905
2414.660156 0.052707
2414.155273 0.047809
2413.812500 0.055306
2413.293945 0.048311
2412.963867 0.051644
2412.115234 0.054763
2411.266602 0.056838
2410.416992 0.052135
2409.568359 0.047434
2408.718750 0.050552
2407.869141 0.052105
2407.019531 0.058867
2406.169922 0.051043
2405.319336 0.054679
2404.469727 0.052065
2403.619141 0.047891
2402.768555 0.053606
2401.917969 0.054116
2401.066406 0.049944
2400.215820 0.057736
2399.364258 0.045244
2398.513672 0.054074
2397.662109 0.049905
2396.810547 0.055613
2395.958008 0.057161
2395.106445 0.052474
2394.253906 0.059217
2393.402344 0.050376
2392.549805 0.052963
2391.697266 0.046723
2390.843750 0.052942
2389.991211 0.049818
2389.137695 0.054478
2388.284180 0.051874
2387.430664 0.052901
2386.577148 0.050298
2385.723633 0.047178
2384.869141 0.057017
2384.015625 0.059079
2383.161133 0.050259
2382.306641 0.048695
2381.452148 0.050240
2380.597656 0.052819
2379.742188 0.049702
2378.886719 0.052281
2378.032227 0.052271
2377.176758 0.046051
2376.320313 0.055872
2375.464844 0.051206
2374.609375 0.056884
2373.752930 0.057907
2372.896484 0.057379
2372.040039 0.052199
2371.183594 0.056840
2370.326172 0.056828
2369.469727 0.052169
2368.612305 0.057839
2367.754883 0.058344
2366.897461 0.064011
2366.040039 0.058321
2365.182617 0.056762
2364.324219 0.056751
2363.465820 0.055708
2362.607422 0.053118
2361.749023 0.051046
2360.890625 0.061346
2360.031250 0.060818
2359.172852 0.051531
2358.313477 0.049975
2357.454102 0.050996
2356.594727 0.054076
2355.735352 0.059729
2354.875000 0.058173
2354.015625 0.056617
2353.155273 0.054548
2352.294922 0.055051
2351.434570 0.054526
2350.573242 0.058116
2349.712891 0.053991
2348.851563 0.052438
2347.990234 0.056539
2347.128906 0.053445
2346.267578 0.052920
2345.406250 0.053424
2344.543945 0.054954
2343.681641 0.060078
2342.819336 0.054932
2341.957031 0.056461
2341.094727 0.056450
2340.232422 0.054387
2339.369141 0.060019
2338.505859 0.059494
2337.642578 0.059482
2336.779297 0.053318
2335.916016 0.065610
2335.051758 0.063034
2334.188477 0.064559
2333.324219 0.059423
2332.459961 0.059412
2331.595703 0.059912
2330.730469 0.053757
2329.866211 0.065519
2329.000977 0.061923
2328.135742 0.056283
2327.270508 0.054737
2326.405273 0.056772
2325.540039 0.058806
2324.673828 0.065441
2323.807617 0.064406
2322.941406 0.055194
2322.075195 0.058249
2321.208984 0.063345
2320.341797 0.059247
2319.475586 0.066895
2318.608398 0.060755
2317.741211 0.058701
2316.874023 0.058179
2316.005859 0.055106
2315.138672 0.053565
2314.270508 0.062225
2313.402344 0.065272
2312.534180 0.067808
2311.666016 0.053012
2310.797852 0.057588
2309.928711 0.056558
2309.059570 0.060622
2308.190430 0.055517
2307.321289 0.061616
2306.452148 0.058040
2305.582031 0.060574
2304.712891 0.058017
2303.842773 0.058514
2302.972656 0.063081
2302.102539 0.065103
2301.231445 0.061530
2300.361328 0.058467
2299.490234 0.057947
2298.619141 0.057936
2297.748047 0.058940
2296.876953 0.050800
2296.004883 0.063996
2295.133789 0.062460
2294.261719 0.063970
2293.389648 0.063957
2292.517578 0.059885
2291.645508 0.056828
2290.772461 0.060368
2289.899414 0.060863
2289.027344 0.061358
2288.153320 0.054248
2287.280273 0.056771
2286.407227 0.063348
2285.533203 0.061309
2284.660156 0.057244
2283.786133 0.061284
2282.911133 0.061778
2282.037109 0.057715
2281.163086 0.059222
2280.288086 0.062753
2279.413086 0.060210
2278.538086 0.062222
2277.663086 0.061198
2276.787109 0.061185
2275.912109 0.061173
2275.036133 0.063688
2274.160156 0.058116
2273.284180 0.059115
2272.408203 0.060113
2271.531250 0.063637
2270.655273 0.065644
2269.778320 0.060582
2268.901367 0.060065
2268.024414 0.061567
2267.146484 0.062059
2266.269531 0.061542
2265.391602 0.062034
2264.513672 0.061013
2263.635742 0.069571
2262.757813 0.063508
2261.878906 0.061983
2261.000000 0.058444
2260.122070 0.060951
2259.243164 0.057413
2258.363281 0.064954
2257.484375 0.062424
2256.604492 0.068955
2255.725586 0.061896
2254.845703 0.063896
2253.965820 0.073440
2253.084961 0.065378
2252.205078 0.062348
2251.324219 0.067363
2250.443359 0.059810
2249.562500 0.066833
2248.681641 0.069834
2247.800781 0.052741
2246.918945 0.061268
2246.037109 0.065774
2245.155273 0.068773
2244.273438 0.064744
2243.391602 0.068745
2242.509766 0.063212
2241.626953 0.066209
2240.744141 0.073216
2239.861328 0.065681
2238.978516 0.069678
2238.094727 0.061645
2237.211914 0.069148
2236.328125 0.064625
2235.444336 0.069621
2234.560547 0.062596
2233.675781 0.066588
2232.791992 0.065574
2231.907227 0.066561
2231.022461 0.064046
2230.137695 0.067034
2229.252930 0.065020
2228.368164 0.072008
2227.482422 0.063494
2226.596680 0.066480
2225.710938 0.075961
2224.825195 0.064454
2223.938477 0.066939
2223.052734 0.066925
2222.166016 0.065912
2221.279297 0.066897
2220.392578 0.072873
2219.505859 0.068367
2218.618164 0.066856
2217.731445 0.066843
2216.843750 0.063837
2215.956055 0.065818
2215.068359 0.065306
2214.179688 0.071274
2213.291016 0.063286
2212.403320 0.065266
2211.514648 0.064256
2210.625977 0.071215
2209.736328 0.073192
2208.847656 0.068697
2207.958008 0.066692
2207.068359 0.066181
2206.178711 0.065670
2205.289063 0.066651
2204.398438 0.064648
2203.507813 0.066623
2202.618164 0.070089
2201.727539 0.064608
2200.835938 0.066582
2199.945313 0.066569
2199.053711 0.062581
2198.162109 0.069024
2197.270508 0.070003
2196.378906 0.072967
2195.487305 0.067989
2194.594727 0.067975
2193.703125 0.072921
2192.810547 0.066459
2191.917969 0.065949
2191.024414 0.070893
2190.131836 0.063939
2189.238281 0.064917
2188.344727 0.066390
2187.451172 0.075788
2186.557617 0.062896
2185.664063 0.064369
2184.769531 0.072276
2183.875000 0.066322
2182.980469 0.066308
2182.085938 0.064810
2181.191406 0.069743
2180.295898 0.068245
2179.400391 0.072681
2178.504883 0.064262
2177.609375 0.071168
2176.713867 0.073624
2175.817383 0.064716
2174.921875 0.069642
2174.025391 0.064689
2173.128906 0.071094
2172.231445 0.064662
2171.334961 0.066130
2170.437500 0.069570
2169.540039 0.069555
2168.642578 0.065102
2167.745117 0.066075
2166.847656 0.070991
2165.949219 0.065554
2165.050781 0.066033
2164.152344 0.068483
2163.253906 0.070439
2162.354492 0.074364
2161.456055 0.074349
2160.556641 0.071380
2159.657227 0.065951
2158.757813 0.060032
2157.858398 0.070351
2156.958008 0.065910
2156.057617 0.063929
2155.157227 0.067849
2154.256836 0.072750
2153.356445 0.067329
2152.456055 0.071737
2151.554688 0.073196
2150.653320 0.068760
2149.751953 0.065309
2148.850586 0.067259
2147.948242 0.071172
2147.045898 0.065759
2146.144531 0.070651
2145.242188 0.069165
2144.338867 0.065717
2143.436523 0.074039
2142.533203 0.072063
2141.629883 0.074988
2140.726563 0.075463
2139.823242 0.069568
2138.919922 0.074451
2138.015625 0.071498
2137.111328 0.065607
2136.207031 0.080279
2135.302734 0.073410
2134.398438 0.077309
2133.493164 0.080717
2132.588867 0.070919
2131.683594 0.080194
2130.778320 0.078711
2129.872070 0.079183
2128.966797 0.084542
2128.060547 0.082081
2127.154297 0.087926
2126.248047 0.075698
2125.341797 0.084959
2124.434570 0.081036
2123.527344 0.085900
2122.620117 0.072707
2121.712891 0.079521
2120.805664 0.087309
2119.897461 0.083877
2118.990234 0.085322
2118.082031 0.085304
2117.173828 0.074564
2116.265625 0.077959
2115.356445 0.083788
2114.447266 0.081822
2113.539063 0.071579
2112.628906 0.081301
2111.719727 0.077390
2110.810547 0.079320
2109.900391 0.080763
2108.990234 0.074909
2108.080078 0.069543
2107.169922 0.072932
2106.258789 0.074375
2105.348633 0.078247
2104.437500 0.086005
2103.526367 0.082587
2102.615234 0.073341
2101.703125 0.077210
2100.791992 0.075252
2099.879883 0.071838
2098.967773 0.084925
2098.055664 0.081996
2097.142578 0.079554
2096.230469 0.073232
2095.317383 0.080005
2094.404297 0.079503
2093.490234 0.081425
2092.577148 0.082376
2091.663086 0.073639
2090.750000 0.080404
2089.835938 0.077481
2088.920898 0.077465
2088.006836 0.075996
2087.091797 0.080336
2086.177734 0.080802
2085.262695 0.073045
2084.346680 0.086572
2083.431641 0.073981
2082.515625 0.079283
2081.600586 0.075883
2080.684570 0.075383
2079.767578 0.078266
2078.851563 0.075834
2077.934570 0.079199
2077.017578 0.081596
2076.100586 0.083026
2075.183594 0.079630
2074.266602 0.076236
2073.348633 0.075737
2072.430664 0.072827
2071.512695 0.077151
2070.594727 0.082920
2069.676758 0.082902
2068.757813 0.079993
2067.838867 0.074195
2066.919922 0.073697
2066.000977 0.078978
2065.082031 0.078962
2064.162109 0.077982
2063.242188 0.082297
2062.322266 0.086128
2061.402344 0.083223
2060.481445 0.080801
2059.561523 0.082226
2058.640625 0.088458
2057.719727 0.083632
2056.798828 0.075445
2055.876953 0.072546
2054.956055 0.082137
2054.034180 0.085001
2053.112305 0.080182
2052.189453 0.078244
2051.267578 0.079187
2050.344727 0.080610
2049.421875 0.081072
2048.499023 0.081054
2047.576172 0.082955
2046.652344 0.078143
2045.729492 0.081002
2044.805664 0.080026
2043.881836 0.084321
2042.957031 0.079991
2042.033203 0.083326
2041.108398 0.076605
2040.183594 0.087598
2039.258789 0.087579
2038.333984 0.082297
2037.408203 0.085150
2036.483398 0.079392
2035.557617 0.087982
2034.630859 0.081270
2033.705078 0.084120
2032.778320 0.086491
2031.852539 0.086472
2030.925781 0.083186
2030.818359 0.088842
2029.999023 0.086054
2029.892578 0.085480
2029.071289 0.079348
2028.965820 0.086416
2028.144531 0.078378
2028.040039 0.084010
2027.216797 0.075976
2027.113281 0.088287
2026.289063 0.081218
2026.186523 0.083974
2025.361328 0.083115
2025.260742 0.085387
2024.432617 0.082624
2024.333008 0.087276
2023.503906 0.086907
2023.406250 0.089164
2022.576172 0.074002
2022.479492 0.085808
2021.647461 0.079717
2021.551758 0.081976
2020.717773 0.083522
2020.624023 0.092441
2019.789063 0.081122
2019.696289 0.081464
2018.859375 0.087310
2018.768555 0.089067
2017.929688 0.086818
2017.840820 0.084762
2017.000000 0.083942
2016.913086 0.088076
2016.070313 0.083451
2015.984375 0.091864
2015.139648 0.076761
2015.055664 0.087562
2014.209961 0.082469
2014.126953 0.087542
2013.279297 0.088174
2013.198242 0.089426
2012.348633 0.081487
2012.269531 0.091309
2011.416992 0.085761
2011.340820 0.092715
2010.486328 0.087652
2010.411133 0.090793
2009.554688 0.081445
2009.482422 0.089823
2008.623047 0.085717
2008.552734 0.087428
2007.691406 0.084750
2007.623047 0.085983
2006.759766 0.084259
2006.692383 0.091189
2005.827148 0.085673
2005.762695 0.092593
2004.894531 0.084706
2004.833008 0.086401
2003.961914 0.081837
2003.902344 0.085908
2003.029297 0.083725
2002.971680 0.093007
2002.096680 0.082284
2002.041016 0.086819
2001.163086 0.083221
2001.110352 0.092492
2000.229492 0.084633
2000.178711 0.091997
1999.295898 0.081766
1999.248047 0.092451
1998.362305 0.093159
1998.316406 0.088165
1997.427734 0.094093
1997.384766 0.082932
1996.494141 0.089325
1996.453125 0.090021
1995.559570 0.088360
1995.521484 0.091422
1994.625000 0.086444
1994.589844 0.089034
1993.689453 0.085005
1993.657227 0.087594
1992.754883 0.089263
1992.724609 0.095149
1991.819336 0.079753
1991.792969 0.092762
1990.883789 0.084485
1990.860352 0.095107
1989.948242 0.085894
1989.926758 0.092248
1989.012695 0.095369
1988.994141 0.088444
1988.076172 0.096775
1988.061523 0.088897
1987.139648 0.087746
1987.127930 0.083677
1986.203125 0.090102
1986.194336 0.087440
1985.266602 0.084871
1985.260742 0.095454
1984.330078 0.084856
1984.327148 0.082677
1983.392578 0.087684
1983.392578 0.093522
1982.458984 0.095725
1982.455078 0.093502
1981.524414 0.095708
1981.517578 0.095841
1980.589844 0.088586
1980.580078 0.096764
1979.655273 0.085728
1979.641602 0.097215
1978.720703 0.089501
1978.703125 0.093419
1977.786133 0.088065
1977.765625 0.092926
1976.850586 0.088996
1976.826172 0.095735
1975.915039 0.090400
1975.887695 0.100901
1974.979492 0.098902
1974.948242 0.092864
1974.043945 0.096046
1974.009766 0.098499
1973.108398 0.095083
1973.070313 0.089996
1972.172852 0.087025
1972.130859 0.095629
1971.236328 0.086537
1971.190430 0.095137
1970.299805 0.103542
1970.250000 0.087111
1969.363281 0.088397
1969.310547 0.088504
1968.426758 0.096416
1968.370117 0.104016
1967.490234 0.094981
1967.428711 0.101169
1966.553711 0.100161
1966.488281 0.089386
1965.616211 0.102505
1965.546875 0.098302
1964.678711 0.094930
1964.605469 0.099691
1963.741211 0.092080
1963.664063 0.100139
1962.803711 0.098673
1962.722656 0.092596
1961.866211 0.095351
1961.780273 0.090226
1960.928711 0.094862
1960.837891 0.096783
1959.990234 0.100508
1959.895508 0.099580
1959.051758 0.100490
1958.953125 0.089696
1958.113281 0.096698
1958.010742 0.098127
1957.174805 0.095737
1957.067383 0.095758
1956.236328 0.096192
1956.124023 0.097614
1955.296875 0.102775
1955.180664 0.098999
1954.357422 0.091915
1954.237305 0.100384
1953.418945 0.094726
1953.292969 0.092858
1952.479492 0.103190
1952.349609 0.090962
1951.539063 0.093278
1951.405273 0.100786
1950.599609 0.087609
1950.460938 0.102169
1949.660156 0.103134
1949.515625 0.097461
1948.719727 0.098407
1948.571289 0.092754
1947.779297 0.095094
1947.625977 0.099759
1946.838867 0.105902
1946.680664 0.095990
1945.898438 0.098824
1945.735352 0.104863
1944.957031 0.093160
1944.789063 0.106712
1944.016602 0.104433
1943.842773 0.098733
1943.075195 0.087953
1942.896484 0.098243
1942.133789 0.102985
1941.950195 0.097285
1941.192383 0.101556
1941.003906 0.094458
1940.250977 0.103887
1940.056641 0.097709
1939.308594 0.093059
1939.110352 0.100492
1938.366211 0.105259
1938.163086 0.097665
1937.424805 0.102891
1937.215820 0.099045
1936.482422 0.100993
1936.267578 0.099956
1935.539063 0.098627
1935.319336 0.106005
1934.596680 0.099078
1934.372070 0.104580
1933.654297 0.096713
1933.422852 0.097555
1932.710938 0.105144
1932.474609 0.107799
1931.767578 0.098554
1931.526367 0.107775
1930.824219 0.109798
1930.577148 0.099821
1929.880859 0.098049
1929.627930 0.102596
1928.936523 0.099438
1928.678711 0.105371
1927.993164 0.097544
1927.728516 0.100219
1927.048828 0.097526
1926.779297 0.104391
1926.104492 0.099852
1925.829102 0.101571
1925.160156 0.104990
1924.878906 0.106672
1924.215820 0.105439
1923.928711 0.101060
1923.270508 0.097455
1922.977539 0.103365
1922.326172 0.104932
1922.026367 0.103341
1921.380859 0.106317
1921.075195 0.093544
1920.435547 0.109576
1920.124023 0.104225
1919.490234 0.102533
1919.172852 0.104201
1918.543945 0.101578
1918.220703 0.104642
1917.598633 0.102963
1917.268555 0.102759
1916.652344 0.112770
1916.316406 0.096692
1915.706055 0.103860
1915.364258 0.106430
1914.759766 0.114599
1914.411133 0.109194
1913.813477 0.109434
1913.458984 0.101736
1912.866211 0.094451
1912.505859 0.101713
1911.919922 0.108926
1911.552734 0.105868
1910.972656 0.108906
1910.598633 0.099345
1910.025391 0.108418
1909.645508 0.098858
1909.078125 0.106529
1908.691406 0.099300
1908.129883 0.101838
1907.737305 0.106236
1907.182617 0.106022
1906.782227 0.103892
1906.234375 0.105536
1905.828125 0.106187
1905.286133 0.100847
1904.873047 0.113116
1904.337891 0.099428
1903.917969 0.104748
1903.389648 0.105010
1902.962891 0.106577
1902.440430 0.105923
1902.006836 0.110722
1901.492188 0.105904
1901.051758 0.108381
1900.542969 0.099820
1900.095703 0.107893
1899.593750 0.103532
1899.139648 0.104628
1898.644531 0.105844
1898.183594 0.106918
1897.695313 0.108622
1897.226563 0.111521
1896.745117 0.101610
1896.269531 0.101317
1895.794922 0.101591
1895.312500 0.096206
1894.844727 0.104367
1894.355469 0.105894
1893.894531 0.109938
1893.398438 0.104021
1892.944336 0.104328
1892.440430 0.097064
1891.994141 0.102446
1891.482422 0.102586
1891.042969 0.109410
1890.524414 0.113189
1890.091797 0.104269
1889.566406 0.110391
1889.140625 0.099130
1888.607422 0.102515
1888.189453 0.112140
1887.648438 0.108955
1887.238281 0.106537
1886.689453 0.096006
1886.286133 0.097214
1885.730469 0.108905
1885.334961 0.103706
1884.770508 0.104266
1884.382813 0.108336
1883.811523 0.111622
1883.430664 0.107851
1882.851563 0.109751
1882.477539 0.118056
1881.891602 0.100966
1881.525391 0.109669
1880.930664 0.102787
1880.572266 0.106396
1879.970703 0.099537
1879.619141 0.104053
1879.009766 0.102278
1878.666016 0.104498
1878.048828 0.111927
1877.712891 0.104478
1877.086914 0.113282
1876.759766 0.105851
1876.125977 0.103128
1875.805664 0.104903
1875.164063 0.104484
1874.852539 0.115093
1874.202148 0.102619
1873.898438 0.107183
1873.240234 0.108576
1872.943359 0.110410
1872.277344 0.108091
1871.989258 0.107606
1871.315430 0.108986
1871.035156 0.107585
1870.352539 0.105282
1870.080078 0.113592
1869.389648 0.109394
1869.125000 0.108935
1868.425781 0.106152
1868.169922 0.113086
1867.462891 0.106587
1867.214844 0.099163
1866.499023 0.110236
1866.258789 0.111653
1865.535156 0.103322
1865.303711 0.105610
1864.570313 0.105594
1864.347656 0.112999
1863.606445 0.110159
1863.391602 0.119460
1862.641602 0.117016
1862.435547 0.110642
1861.676758 0.103684
1861.479492 0.113398
1860.711914 0.111916
1860.522461 0.112450
1859.746094 0.110578
1859.565430 0.109138
1858.781250 0.112407
1858.608398 0.109571
1857.815430 0.115623
1857.651367 0.114587
1856.849609 0.109590
1856.694336 0.114102
1855.882813 0.106795
1855.736328 0.103080
1854.916992 0.114170
1854.779297 0.110842
1853.950195 0.103519
1853.821289 0.108985
1852.983398 0.112740
1852.863281 0.116742
1852.015625 0.106713
1851.905273 0.120833
1851.048828 0.114082
1850.946289 0.117602
1850.081055 0.114522
1849.988281 0.115287
1849.113281 0.118656
1849.029297 0.111600
1848.145508 0.113555
1848.070313 0.103800
1847.176758 0.108457
1847.111328 0.119777
1846.208008 0.115357
1846.151367 0.116549
1845.239258 0.107492
1845.192383 0.121091
1844.270508 0.118080
1844.232422 0.127001
1843.301758 0.111601
1843.272461 0.115096
1842.332031 0.118035
1842.312500 0.110502
1841.362305 0.122161
1841.352539 0.120976
1840.392578 0.117067
1840.391602 0.124142
1839.430664 0.118427
1839.422852 0.114530
1838.470703 0.123472
1838.452148 0.121346
1837.508789 0.111932
1837.481445 0.111739
1836.547852 0.118819
1836.510742 0.125848
1835.586914 0.122019
1835.540039 0.116701
1834.625000 0.117392
1834.568359 0.122598
1833.663086 0.128876
1833.597656 0.122569
1832.701172 0.118727
1832.625000 0.118895
1831.739258 0.123305
1831.653320 0.125243
1830.777344 0.118681
1830.681641 0.123847
1829.814453 0.126476
1829.708984 0.135198
1828.851563 0.124612
1828.736328 0.129704
1827.888672 0.125508
1827.763672 0.113748
1826.925781 0.129160
1826.790039 0.120544
1825.962891 0.132812
1825.817383 0.121425
1824.999023 0.132786
1824.843750 0.125943
1824.035156 0.125869
1823.869141 0.139095
1823.071289 0.130438
1822.895508 0.130427
1822.107422 0.133168
1821.920898 0.126761
1821.143555 0.126255
1820.947266 0.127639
1820.178711 0.129903
1819.971680 0.129879
1819.214844 0.122075
1818.997070 0.130302
1818.250000 0.119757
1818.021484 0.126185
1817.285156 0.121569
1817.046875 0.123432
1816.319336 0.119252
1816.070313 0.123402
1815.354492 0.130693
1815.094727 0.129723
1814.388672 0.114620
1814.119141 0.132866
1813.422852 0.120099
1813.142578 0.120139
1812.457031 0.115492
1812.166016 0.122830
1811.491211 0.118677
1811.188477 0.123707
1810.525391 0.120028
1810.211914 0.118693
1809.558594 0.123211
1809.234375 0.118665
1808.591797 0.130514
1808.256836 0.120900
1807.625000 0.118584
1807.279297 0.120871
1806.658203 0.123596
1806.300781 0.129441
1805.690430 0.132725
1805.322266 0.112668
1804.723633 0.133157
1804.343750 0.128926
1803.755859 0.125811
1803.365234 0.121658
1802.788086 0.123957
1802.386719 0.125698
1801.820313 0.125762
1801.407227 0.134708
1800.851563 0.123908
1800.427734 0.125185
1799.883789 0.127083
1799.448242 0.115666
1798.915039 0.122488
1798.467773 0.120155
1797.946289 0.128404
1797.488281 0.121481
1796.977539 0.133405
1796.507813 0.126869
1796.007813 0.126983
1795.527344 0.128644
1795.039063 0.122848
1794.545898 0.128612
1794.069336 0.126020
1793.564453 0.124972
1793.099609 0.122800
1792.583008 0.120431
1792.129883 0.135555
1791.601563 0.123558
1791.160156 0.130965
1790.620117 0.122175
1790.189453 0.131852
1789.637695 0.126652
1789.218750 0.121334
1788.655273 0.121214
1788.248047 0.130431
1787.672852 0.126140
1787.277344 0.135421
1786.690430 0.129261
1786.306641 0.128556
1785.707031 0.130581
1785.334961 0.134912
1784.723633 0.135500
1784.364258 0.128050
1783.740234 0.129166
1783.392578 0.131669
1782.756836 0.126885
1782.420898 0.136198
1781.772461 0.144847
1781.448242 0.134805
1780.788086 0.124574
1780.476563 0.141153
1779.803711 0.133985
1779.503906 0.140214
1778.819336 0.134851
1778.531250 0.131539
1777.833984 0.131672
1777.558594 0.141524
1776.848633 0.140625
1776.585938 0.132396
1775.863281 0.132505
1775.612305 0.142377
1774.877930 0.144148
1774.638672 0.138256
1773.891602 0.139623
1773.666016 0.137774
1772.905273 0.146321
1772.691406 0.146384
1771.918945 0.140451
1771.717773 0.147718
1770.931641 0.137692
1770.744141 0.139519
1769.945313 0.138573
1769.769531 0.139485
1768.958008 0.152173
1768.794922 0.149763
1767.970703 0.143967
1767.820313 0.141657
1766.982422 0.144847
1766.845703 0.136244
1765.995117 0.140278
1765.870117 0.142034
1765.006836 0.147966
1764.894531 0.148270
1764.018555 0.142945
1763.919922 0.141068
1763.029297 0.143824
1762.944336 0.152226
1762.041016 0.146063
1761.967773 0.149950
1761.051758 0.151930
1760.992188 0.153493
1760.062500 0.159154
1760.015625 0.151217
1759.072266 0.147789
1759.039063 0.150732
1758.083008 0.147759
1758.062500 0.141304
1757.092773 0.146370
1757.085938 0.152892
1756.108398 0.150872
1756.101563 0.145703
1755.131836 0.154012
1755.111328 0.149241
1754.154297 0.158058
1754.120117 0.145183
1753.176758 0.157573
1753.128906 0.150059
1752.198242 0.162521
1751.220703 0.157510
1750.242188 0.160193
1749.263672 0.159709
1748.285156 0.149725
1747.306641 0.161001
1746.327148 0.155995
1745.348633 0.154156
1744.369141 0.145085
1743.389648 0.154546
1742.409180 0.154966
1741.429688 0.157194
1740.449219 0.152194
1739.468750 0.152164
1738.488281 0.161162
1737.507813 0.156616
1736.526367 0.149815
1735.544922 0.149785
1734.563477 0.153363
1733.582031 0.152882
1732.600586 0.148793
1731.618164 0.152820
1730.636719 0.157296
1729.654297 0.144196
1728.671875 0.160386
1727.688477 0.146841
1726.706055 0.160321
1725.722656 0.156236
1724.739258 0.151703
1723.755859 0.152123
1722.771484 0.148942
1721.788086 0.143963
1720.803711 0.149781
1719.819336 0.154698
1718.834961 0.152868
1717.850586 0.151039
1716.865234 0.153255
1715.879883 0.159515
1714.894531 0.147802
1713.909180 0.161247
1712.923828 0.155376
1711.937500 0.156691
1710.951172 0.159802
1709.964844 0.148101
1708.978516 0.156147
1707.991211 0.154769
1707.004883 0.164157
1706.017578 0.155155
1705.030273 0.156468
1704.042969 0.168987
1703.054688 0.164023
1702.066406 0.164886
1701.078125 0.158132
1700.089844 0.170193
1699.101563 0.160307
1698.113281 0.158931
1697.124023 0.158003
1696.134766 0.158866
1695.145508 0.165992
1694.155273 0.159696
1693.166016 0.156980
1692.175781 0.158289
1691.185547 0.162280
1690.195313 0.156436
1689.205078 0.162214
1688.213867 0.163521
1687.222656 0.157234
1686.231445 0.167920
1685.240234 0.155830
1684.249023 0.153119
1683.256836 0.158890
1682.264648 0.161089
1681.272461 0.149902
1680.280273 0.158346
1679.287109 0.169908
1678.294922 0.160065
1677.301758 0.153345
1676.308594 0.158216
1675.315430 0.166204
1674.321289 0.153251
1673.327148 0.155001
1672.333008 0.154078
1671.338867 0.158499
1670.344727 0.150009
1669.349609 0.153983
1668.355469 0.162850
1667.360352 0.157033
1666.365234 0.150330
1665.369141 0.160081
1664.374023 0.157381
1663.377930 0.155571
1662.381836 0.157760
1661.384766 0.159061
1660.388672 0.154586
1659.391602 0.155442
1658.395508 0.169175
1657.397461 0.165144
1656.400391 0.154902
1655.403320 0.158864
1654.405273 0.172141
1653.407227 0.149483
1652.409180 0.157435
1651.411133 0.165383
1650.412109 0.162689
1649.413086 0.168860
1648.414063 0.175472
1647.415039 0.170119
1646.416016 0.175399
1645.416016 0.168720
1644.416016 0.162929
1643.416016 0.158026
1642.416016 0.165517
1641.415039 0.166810
1640.415039 0.178277
1639.414063 0.181779
1638.413086 0.171128
1637.411133 0.170208
1636.410156 0.171499
1635.408203 0.180744
1634.406250 0.174079
1633.404297 0.175809
1632.402344 0.174006
1631.399414 0.181476
1630.396484 0.176583
1629.393555 0.174780
1628.390625 0.184452
1627.387695 0.187060
1626.383789 0.177759
1625.379883 0.194038
1624.375977 0.186503
1623.372070 0.192635
1622.367188 0.185543
1621.362305 0.190352
1620.357422 0.192955
1619.352539 0.193796
1618.347656 0.193755
1617.341797 0.192394
1616.335938 0.187512
1615.330078 0.185272
1614.324219 0.193153
1613.318359 0.185635
1612.311523 0.190433
1611.304688 0.190394
1610.297852 0.185958
1609.291016 0.188995
1608.283203 0.192911
1607.275391 0.205611
1606.267578 0.190634
1605.259766 0.196303
1604.251953 0.198457
1603.243164 0.204561
1602.234375 0.198812
1601.225586 0.204914
1600.216797 0.193026
1599.207031 0.207021
1598.198242 0.204785
1597.188477 0.209564
1596.178711 0.205137
1595.167969 0.198520
1594.158203 0.200669
1593.147461 0.200627
1592.136719 0.195767
1591.125977 0.197915
1590.114258 0.207943
1589.103516 0.196957
1588.091797 0.196040
1587.080078 0.198624
1586.067383 0.190709
1585.055664 0.195479
1584.042969 0.185819
1583.030273 0.189714
1582.017578 0.198415
1581.003906 0.190508
1579.991211 0.191341
1578.977539 0.182129
1577.963867 0.183837
1576.949219 0.184672
1575.935547 0.178958
1574.920898 0.195067
1573.906250 0.195026
1572.891602 0.188878
1571.876953 0.185349
1570.861328 0.192286
1569.845703 0.193553
1568.830078 0.186103
1567.814453 0.193907
1566.797852 0.189074
1565.782227 0.199051
1564.765625 0.190300
1563.749023 0.197661
1562.731445 0.194572
1561.714844 0.187568
1560.697266 0.187963
1559.679688 0.191403
1558.662109 0.182230
1557.643555 0.189148
1556.625000 0.176501
1555.607422 0.179071
1554.587891 0.184682
1553.569336 0.177692
1552.549805 0.182432
1551.531250 0.186302
1550.511719 0.179749
1549.491211 0.169293
1548.471680 0.176201
1547.451172 0.186143
1546.430664 0.184802
1545.410156 0.184329
1544.389648 0.177352
1543.368164 0.177748
1542.346680 0.185945
1541.325195 0.183739
1540.303711 0.175901
1539.282227 0.180195
1538.259766 0.179291
1537.237305 0.177087
1536.214844 0.180946
1535.191406 0.171818
1534.168945 0.170051
1533.145508 0.189915
1532.122070 0.186414
1531.098633 0.186374
1530.074219 0.177255
1529.050781 0.178082
1528.026367 0.185823
1527.000977 0.178870
1525.976563 0.187039
1524.951172 0.174043
1523.926758 0.178323
1522.901367 0.189077
1521.875000 0.183858
1520.849609 0.189859
1519.823242 0.185936
1518.796875 0.182446
1517.770508 0.188444
1516.743164 0.189697
1515.716797 0.184915
1514.689453 0.195218
1513.662109 0.204224
1512.634766 0.195565
1511.606445 0.184756
1510.578125 0.202370
1509.549805 0.193286
1508.521484 0.195397
1507.493164 0.192773
1506.463867 0.196604
1505.434570 0.194841
1504.405273 0.190929
1503.375977 0.183149
1502.345703 0.195145
1501.315430 0.205417
1500.285156 0.193342
1499.254883 0.202322
1498.223633 0.197983
1497.193359 0.199229
1496.162109 0.203479
1495.130859 0.201289
1494.098633 0.201246
1493.067383 0.199486
1492.035156 0.211882
1491.002930 0.192539
1489.969727 0.209646
1488.937500 0.209601
1487.904297 0.194557
1486.871094 0.214224
1485.837891 0.210322
1484.803711 0.202140
1483.770508 0.218367
1482.736328 0.214467
1481.702148 0.204577
1480.666992 0.219937
1479.632813 0.205344
1478.597656 0.228823
1477.562500 0.212097
1476.527344 0.226159
1475.491211 0.227392
1474.455078 0.225634
1473.418945 0.219604
1472.382813 0.222546
1471.346680 0.211394
1470.309570 0.223303
1469.272461 0.209168
1468.235352 0.209976
1467.198242 0.218465
1466.160156 0.208179
1465.122070 0.207707
1464.083984 0.202545
1463.045898 0.212307
1462.006836 0.207998
1460.968750 0.222868
1459.929688 0.228784
1458.889648 0.208714
1457.850586 0.216760
1456.810547 0.213307
1455.771484 0.225605
1454.730469 0.211086
1453.690430 0.215295
1452.649414 0.219502
1451.609375 0.220305
1450.568359 0.216005
1449.526367 0.229136
1448.485352 0.217611
1447.443359 0.216714
1446.401367 0.217941
1445.359375 0.225963
1444.316406 0.228887
1443.274414 0.224591
1442.231445 0.229636
1441.188477 0.224918
1440.144531 0.219353
1439.101563 0.235000
1438.057617 0.231980
1437.013672 0.230657
1435.968750 0.240780
1434.924805 0.244118
1433.879883 0.246607
1432.834961 0.258415
1431.790039 0.256241
1430.744141 0.250680
1429.698242 0.265019
1428.653320 0.280198
1427.606445 0.285215
1426.560547 0.290229
1425.513672 0.297779
1424.466797 0.294754
1423.419922 0.299340
1422.373047 0.290820
1421.325195 0.287798
1420.277344 0.283509
1419.229492 0.281757
1418.181641 0.293521
1417.132813 0.287545
1416.084961 0.276928
1415.036133 0.284464
1413.986328 0.284824
1412.937500 0.290667
1411.887695 0.276263
1410.837891 0.280840
1409.788086 0.304809
1408.738281 0.297155
1407.687500 0.309310
1406.636719 0.302923
1405.585938 0.301592
1404.534180 0.286365
1403.483398 0.295565
1402.431641 0.287923
1401.379883 0.280284
1400.327148 0.271807
1399.275391 0.283946
1398.222656 0.270425
1397.169922 0.280036
1396.117188 0.265681
1395.063477 0.273188
1394.009766 0.273548
1392.956055 0.274327
1391.902344 0.270487
1390.848633 0.267487
1389.793945 0.277924
1388.739258 0.279541
1387.684570 0.283676
1386.628906 0.282354
1385.574219 0.273483
1384.518555 0.288939
1383.462891 0.296421
1382.406250 0.303901
1381.350586 0.301319
1380.293945 0.320106
1379.237305 0.316265
1378.179688 0.348862
1377.123047 0.342503
1376.065430 0.344520
1375.007813 0.351977
1373.949219 0.365289
1372.891602 0.349729
1371.833008 0.352997
1370.774414 0.342047
1369.715820 0.323158
1368.656250 0.296754
1367.596680 0.296688
1366.537109 0.296622
1365.477539 0.260218
1364.417969 0.264753
1363.357422 0.256344
1362.296875 0.250443
1361.236328 0.263741
1360.174805 0.242821
1359.113281 0.253195
1358.052734 0.234789
1356.990234 0.237239
1355.928711 0.244689
1354.866211 0.238800
1353.803711 0.244996
1352.741211 0.238276
1351.678711 0.239056
1350.615234 0.249412
1349.551758 0.248523
1348.488281 0.246803
1347.424805 0.244251
1346.360352 0.246276
1345.295898 0.246221
1344.231445 0.249492
1343.166992 0.244863
1342.101563 0.253121
1341.036133 0.243091
1339.970703 0.246360
1338.905273 0.247136
1337.838867 0.249987
1336.772461 0.256574
1335.706055 0.243234
1334.639648 0.253968
1333.572266 0.254741
1332.504883 0.267127
1331.437500 0.265823
1330.370117 0.274056
1329.302734 0.262387
1328.234375 0.272689
1327.166016 0.280085
1326.096680 0.274637
1325.028320 0.267535
1323.958984 0.263748
1322.889648 0.282316
1321.820313 0.267354
1320.750000 0.271431
1319.679688 0.270956
1318.609375 0.255179
1317.539063 0.245197
1316.468750 0.255890
1315.397461 0.245086
1314.326172 0.250403
1313.254883 0.244562
1312.182617 0.237073
1311.142578 0.244452
1311.110352 0.234446
1310.069336 0.248524
1310.038086 0.238573
1308.997070 0.240213
1308.965820 0.222849
1307.923828 0.225304
1307.892578 0.215382
1306.851563 0.233916
1306.820313 0.224832
1305.778320 0.230563
1305.747070 0.233041
1304.704102 0.217728
1304.672852 0.217328
1303.630859 0.218091
1303.599609 0.218114
1302.557617 0.232055
1302.525391 0.220960
1301.483398 0.223349
1301.451172 0.228752
1300.409180 0.225358
1300.376953 0.215112
1299.334961 0.216657
1299.301758 0.210541
1298.259766 0.217019
1298.227539 0.210091
1297.185547 0.220675
1297.152344 0.212112
1296.110352 0.234208
1296.076172 0.235134
1295.035156 0.238270
1295.000977 0.231798
1293.959961 0.227107
1293.924805 0.232580
1292.883789 0.236928
1292.848633 0.233772
1291.808594 0.232496
1291.772461 0.228649
1290.732422 0.236156
1290.695313 0.228186
1289.656250 0.245163
1289.618164 0.244576
1288.580078 0.239361
1288.541016 0.255205
1287.502930 0.243840
1287.463867 0.263364
1286.426758 0.251196
1286.386719 0.265357
1285.349609 0.249917
1285.308594 0.252155
1284.272461 0.250283
1284.230469 0.252508
1283.195313 0.250648
1283.152344 0.245062
1282.118164 0.242386
1282.073242 0.248699
1281.040039 0.231252
1280.994141 0.241667
1279.961914 0.231620
1279.915039 0.232587
1278.883789 0.228703
1278.835938 0.235815
1277.805664 0.229072
1277.755859 0.221820
1276.727539 0.221232
1276.676758 0.229148
1275.648438 0.215036
1275.596680 0.215161
1274.569336 0.218689
1274.515625 0.217980
1273.490234 0.217008
1273.435547 0.212195
1272.411133 0.206304
1272.354492 0.225662
1271.332031 0.209547
1271.273438 0.221515
1270.251953 0.217708
1270.191406 0.212049
1269.171875 0.218078
1269.110352 0.215684
1268.091797 0.207792
1268.028320 0.215634
1267.011719 0.211032
1266.946289 0.222948
1265.931641 0.203208
1265.864258 0.217580
1264.850586 0.208906
1264.781250 0.208125
1263.769531 0.206000
1263.698242 0.212983
1262.688477 0.216608
1262.615234 0.219882
1261.607422 0.206333
1261.532227 0.211251
1260.526367 0.214891
1260.448242 0.210793
1259.444336 0.217716
1259.364258 0.205844
1258.362305 0.222176
1258.280273 0.219679
1257.280273 0.224589
1257.196289 0.209015
1256.198242 0.211050
1256.111328 0.215497
1255.115234 0.205695
1255.026367 0.222384
1254.033203 0.222011
1253.941406 0.211318
1252.950195 0.218699
1252.856445 0.217795
1251.867188 0.207215
1251.770508 0.212443
1250.783203 0.192465
1250.684570 0.210764
1249.700195 0.204686
1249.598633 0.213160
1248.616211 0.211592
1248.511719 0.207814
1247.532227 0.215228
1247.425781 0.206951
1246.448242 0.203755
1246.338867 0.213827
1245.364258 0.217189
1245.250977 0.217035
1244.279297 0.218781
1244.164063 0.216578
1243.195313 0.217923
1243.076172 0.220190
1242.110352 0.214618
1241.988281 0.222988
1241.024414 0.217434
1240.900391 0.232700
1239.939453 0.223103
1239.812500 0.220037
1238.853516 0.219799
1238.723633 0.216327
1237.768555 0.228727
1237.634766 0.221155
1236.682617 0.217270
1236.544922 0.223948
1235.595703 0.231901
1235.456055 0.236493
1234.509766 0.226560
1234.366211 0.232376
1233.422852 0.222036
1233.276367 0.222980
1232.336914 0.241139
1232.186523 0.232673
1231.250000 0.230912
1231.095703 0.220034
1230.162109 0.231683
1230.004883 0.217548
1229.075195 0.217797
1228.914063 0.217903
1227.987305 0.219791
1227.823242 0.238948
1226.899414 0.221377
1226.731445 0.219424
1225.811523 0.230693
1225.639648 0.210046
1224.723633 0.217632
1224.547852 0.216889
1223.634766 0.221658
1223.456055 0.211975
1222.546875 0.212263
1222.363281 0.219624
1221.458008 0.208564
1221.270508 0.215116
1220.368164 0.212589
1220.177734 0.209396
1219.279297 0.222302
1219.084961 0.212991
1218.189453 0.213727
1217.991211 0.219824
1217.100586 0.224655
1216.897461 0.223819
1216.010742 0.222988
1215.803711 0.230646
1214.919922 0.229443
1214.708984 0.225737
1213.830078 0.228181
1213.614258 0.230538
1212.739258 0.238286
1212.519531 0.249489
1211.648438 0.257721
1211.424805 0.242558
1210.557617 0.256860
1210.329102 0.246947
1209.466797 0.263303
1209.234375 0.259415
1208.375977 0.276638
1208.138672 0.257738
1207.284180 0.261985
1207.041992 0.264544
1206.192383 0.268017
1205.946289 0.272961
1205.100586 0.269587
1204.849609 0.259575
1204.007813 0.263861
1203.752930 0.257496
1202.916016 0.255300
1202.655273 0.266312
1201.823242 0.256466
1201.558594 0.251727
1200.730469 0.254797
1200.460938 0.271833
1199.637695 0.261633
1199.362305 0.247173
1198.543945 0.256318
1198.264648 0.272914
1197.451172 0.273272
1197.166016 0.256729
1196.357422 0.265124
1196.067383 0.256265
1195.263672 0.269525
1194.968750 0.277555
1194.168945 0.278779
1193.870117 0.276684
1193.075195 0.275489
1192.770508 0.278229
1191.980469 0.285547
1191.670898 0.290643
1190.885742 0.291962
1190.570313 0.283732
1189.791016 0.280180
1189.470703 0.285677
1188.696289 0.286189
1188.370117 0.276357
1187.600586 0.288559
1187.269531 0.273477
1186.504883 0.262643
1186.167969 0.263762
1185.409180 0.268247
1185.067383 0.242796
1184.313477 0.254462
1183.965820 0.229879
1183.216797 0.222510
1182.864258 0.227413
1182.121094 0.230138
1181.761719 0.228163
1181.024414 0.220002
1180.659180 0.224494
1179.927734 0.215923
1179.556641 0.203964
1178.830078 0.222337
1178.454102 0.212747
1177.733398 0.208980
1177.351563 0.206275
1176.635742 0.206923
1176.248047 0.203016
1175.538086 0.206076
1175.144531 0.195748
1174.440430 0.192730
1174.040039 0.201315
1173.341797 0.200755
1172.936523 0.204475
1172.243164 0.205552
1171.832031 0.210038
1171.145508 0.192617
1170.727539 0.187546
1170.045898 0.197817
1169.622070 0.199120
1168.947266 0.184083
1168.517578 0.186255
1167.848633 0.188879
1167.412109 0.194620
1166.749023 0.194077
1166.306641 0.190570
1165.649414 0.188403
1165.200195 0.200531
1164.549805 0.183938
1164.093750 0.184877
1163.449219 0.192353
1162.987305 0.186433
1162.348633 0.186280
1161.880859 0.190788
1161.249023 0.185037
1160.773438 0.191142
1160.147461 0.179772
1159.666016 0.187099
1159.046875 0.179334
1158.558594 0.190651
1157.946289 0.189751
1157.451172 0.190206
1156.844727 0.193331
1156.342773 0.195353
1155.743164 0.176415
1155.234375 0.186520
1154.641602 0.189639
1154.125977 0.188072
1153.539063 0.185986
1153.017578 0.194414
1152.436523 0.192777
1151.908203 0.182793
1151.334961 0.182299
1150.798828 0.187139
1150.231445 0.182263
1149.689453 0.192678
1149.128906 0.183431
1148.579102 0.194626
1148.026367 0.191421
1147.468750 0.181022
1146.922852 0.186970
1146.358398 0.188553
1145.819336 0.185729
1145.248047 0.201659
1144.715820 0.189703
1144.136719 0.194040
1143.611328 0.185655
1143.025391 0.194790
1142.506836 0.197646
1141.914063 0.193946
1141.403320 0.193999
1140.801758 0.193103
1140.297852 0.195163
1139.689453 0.183105
1139.193359 0.192319
1138.577148 0.193010
1138.088867 0.196287
1137.464844 0.187393
1136.983398 0.183031
1136.351563 0.193314
1135.877930 0.182995
1135.239258 0.192870
1134.771484 0.188163
1134.125000 0.190040
1133.666016 0.192928
1133.011719 0.189597
1132.559570 0.187687
1131.897461 0.180411
1131.453125 0.192451
1130.783203 0.192683
1130.346680 0.188813
1129.668945 0.193828
1129.240234 0.197174
1128.553711 0.191001
1128.132813 0.197134
1127.439453 0.190558
1127.025391 0.191898
1126.324219 0.192099
1125.917969 0.191060
1125.208008 0.192846
1124.810547 0.187025
1124.092773 0.195576
1123.702148 0.196577
1122.976563 0.191165
1122.594727 0.186551
1121.859375 0.200239
1121.486328 0.202489
1120.743164 0.201775
1120.377930 0.196858
1119.625977 0.208464
1119.268555 0.195222
1118.508789 0.196922
1118.159180 0.202367
1117.391602 0.201628
1117.050781 0.211505
1116.273438 0.202371
1115.940430 0.205478
1115.155273 0.201925
1114.831055 0.205835
1114.037109 0.200688
1113.721680 0.200609
1112.918945 0.196682
1112.611328 0.196183
1111.799805 0.202964
1111.500977 0.190960
1110.680664 0.177995
1110.389648 0.188132
1109.561523 0.188628
1109.279297 0.188891
1108.441406 0.181466
1108.167969 0.190048
1107.321289 0.181817
1107.056641 0.179255
1106.201172 0.181772
1105.945313 0.180811
1105.081055 0.178962
1104.833984 0.183960
1103.959961 0.182868
1103.721680 0.175961
1102.838867 0.173346
1102.609375 0.178314
1101.717773 0.178435
1101.497070 0.173900
1100.595703 0.177602
1100.384766 0.170682
1099.473633 0.176375
1099.271484 0.169454
1098.351563 0.177909
1098.158203 0.180556
1097.229492 0.172344
1097.044922 0.171374
1096.106445 0.164810
1095.931641 0.162196
1094.983398 0.182902
1094.818359 0.169317
1093.860352 0.171822
1093.704102 0.168885
1092.737305 0.169810
1092.589844 0.173221
1091.613281 0.163072
1091.475586 0.160475
1090.489258 0.166969
1090.360352 0.163223
1089.364258 0.169684
1089.246094 0.165175
1088.240234 0.166887
1088.130859 0.167523
1087.115234 0.176289
1087.015625 0.154391
1085.989258 0.157362
1085.900391 0.160312
1084.864258 0.160863
1084.784180 0.158692
1083.738281 0.164362
1083.667969 0.161833
1082.612305 0.174149
1082.551758 0.166559
1081.486328 0.168211
1081.435547 0.162164
1080.359375 0.171705
1080.318359 0.163716
1079.232422 0.179519
1079.202148 0.160512
1078.105469 0.170834
1078.084961 0.165631
1076.977539 0.171577
1076.966797 0.165597
1075.849609 0.167609
1075.849609 0.167544
1074.731445 0.168352
1074.721680 0.167509
1073.613281 0.165956
1073.593750 0.156785
1072.495117 0.169445
1072.464844 0.169024
1071.376953 0.177300
1071.335938 0.158030
1070.257813 0.156293
1070.207031 0.165048
1069.138672 0.162986
1069.077148 0.164614
1068.019531 0.168095
1067.948242 0.169275
1066.900391 0.172014
1066.817383 0.161398
1065.781250 0.168026
1065.687500 0.168016
1064.661133 0.171944
1064.556641 0.173847
1063.541016 0.159658
1063.425781 0.172629
1062.419922 0.167132
1062.294922 0.168281
1061.299805 0.162357
1061.163086 0.168239
1060.178711 0.171013
1060.032227 0.170543
1059.057617 0.171767
1058.899414 0.169327
1057.936523 0.173706
1057.767578 0.179840
1056.815430 0.168934
1056.634766 0.181359
1055.693359 0.174424
1055.501953 0.178968
1054.571289 0.176755
1054.369141 0.173845
1053.449219 0.175535
1053.235352 0.188642
1052.327148 0.182203
1052.101563 0.171414
1051.204102 0.172308
1050.967773 0.182301
1050.081055 0.181734
1049.833984 0.181475
1048.958008 0.177361
1048.699219 0.178308
1047.834961 0.171413
1047.564453 0.192305
1046.710938 0.192259
1046.428711 0.179777
1045.586914 0.189068
1045.293945 0.189089
1044.462891 0.185878
1044.158203 0.186702
1043.338867 0.180721
1043.021484 0.188214
1042.213867 0.175173
1041.885742 0.176868
1041.089844 0.183401
1040.749023 0.179550
1039.964844 0.179822
1039.612305 0.190407
1038.838867 0.192374
1038.474609 0.183741
1037.713867 0.189187
1037.337891 0.189532
1036.587891 0.184822
1036.200195 0.184426
1035.461914 0.190288
1035.061523 0.171931
1034.335938 0.186318
1033.923828 0.182776
1033.209961 0.183921
1032.785156 0.188173
1032.083008 0.190562
1031.646484 0.176464
1030.956055 0.187380
1030.506836 0.195848
1029.829102 0.186556
1029.367188 0.194633
1028.701172 0.192014
1028.227539 0.186039
1027.574219 0.195115
1027.087891 0.187156
1026.446289 0.195859
1025.947266 0.198754
1025.318359 0.189540
1024.806641 0.187060
1024.189453 0.193816
1023.666016 0.193220
1023.061523 0.195737
1022.524414 0.198989
1021.932617 0.195304
1021.382813 0.181100
1020.803711 0.188598
1020.241211 0.193459
1019.674805 0.182678
1019.098633 0.194185
1018.544922 0.185384
1017.957031 0.183673
1017.415039 0.179467
1016.813477 0.188662
1016.285156 0.179821
1015.670898 0.175832
1015.155273 0.184876
1014.527344 0.181982
1014.024414 0.178571
1013.383789 0.186193
1012.894531 0.183232
1012.240234 0.186146
1011.763672 0.189457
1011.095703 0.205442
1010.631836 0.192548
1009.951172 0.189144
1009.500977 0.193682
1008.806641 0.189095
1008.369141 0.199509
1007.662109 0.187500
1007.237305 0.197903
1006.516602 0.194022
1006.105469 0.213894
1005.371094 0.192812
1004.972656 0.189219
1004.224609 0.196239
1003.840820 0.190743
1003.079102 0.192326
1002.708008 0.198909
1001.932617 0.194979
1001.575195 0.211761
1000.785156 0.215001
1000.441406 0.204295
999.638672 0.198351
999.307617 0.208938
998.491211 0.201000
998.173828 0.208113
997.342773 0.199791
997.040039 0.204166
996.195313 0.192798
995.906250 0.197488
995.046875 0.202386
994.771484 0.205251
993.898438 0.192698
993.636719 0.197015
992.749023 0.198042
992.501953 0.206724
991.599609 0.194138
991.367188 0.200441
990.450195 0.196013
990.231445 0.189483
989.300781 0.197502
989.095703 0.182036
987.959961 0.198756
986.824219 0.192480
985.687500 0.196724
984.550781 0.181493
983.414063 0.189243
982.277344 0.198157
981.139648 0.188774
980.001953 0.191847
978.864258 0.192585
977.726563 0.201490
976.587891 0.193670
975.449219 0.204904
974.310547 0.193199
973.171875 0.192381
972.032227 0.195449
970.893555 0.197350
969.752930 0.204687
968.613281 0.199984
967.473633 0.208095
966.333008 0.208827
965.192383 0.219649
964.050781 0.213394
962.910156 0.221107
961.768555 0.214467
960.626953 0.228768
959.485352 0.214376
958.342773 0.200765
957.200195 0.206147
956.057617 0.199130
954.915039 0.199862
953.771484 0.196722
952.628906 0.192808
951.485352 0.187735
950.340820 0.192339
949.197266 0.178369
948.052734 0.184907
946.908203 0.174812
945.762695 0.184828
944.618164 0.179377
943.472656 0.170449
942.327148 0.167321
941.181641 0.186988
940.035156 0.179610
938.888672 0.172234
937.742188 0.181849
936.595703 0.177950
935.448242 0.183315
934.301758 0.187906
933.154297 0.187480
932.005859 0.172398
930.858398 0.179688
929.709961 0.188516
928.561523 0.190017
927.413086 0.184196
926.263672 0.207273
925.114258 0.203376
923.964844 0.220662
922.815430 0.208294
921.665039 0.200936
920.514648 0.200893
919.364258 0.203543
918.213867 0.196959
917.062500 0.199225
915.911133 0.206872
914.759766 0.204906
913.608398 0.206399
912.456055 0.198669
911.303711 0.200163
910.151367 0.206650
908.999023 0.202765
907.845703 0.213855
906.692383 0.213042
905.539063 0.212996
904.385742 0.219089
903.231445 0.215973
902.077148 0.216309
900.922852 0.219330
899.768555 0.238068
898.613281 0.238399
897.458008 0.241413
896.302734 0.231783
895.146484 0.246288
893.991211 0.242789
892.834961 0.241588
891.678711 0.269861
890.521484 0.276691
889.364258 0.291936
888.207031 0.312912
887.049805 0.317051
885.892578 0.347572
884.734375 0.374256
883.576172 0.368060
882.417969 0.353077
881.258789 0.339247
880.099609 0.328861
878.940430 0.322680
877.781250 0.325282
876.621094 0.313379
875.461914 0.281254
874.301758 0.275089
873.140625 0.251379
871.980469 0.242934
870.819336 0.230680
869.658203 0.221862
868.496094 0.225244
867.334961 0.209953
866.172852 0.215241
865.010742 0.218621
863.847656 0.220859
862.685547 0.212435
861.522461 0.217337
860.359375 0.214245
859.195313 0.213818
858.031250 0.200838
856.867188 0.196991
855.703125 0.214438
854.539063 0.206789
853.374023 0.211684
852.208984 0.212778
851.043945 0.210072
849.877930 0.205469
848.711914 0.214157
847.545898 0.230814
846.379883 0.230004
845.212891 0.234128
844.046875 0.230283
842.879883 0.243128
841.711914 0.243454
840.544922 0.259704
839.376953 0.279357
838.208008 0.297486
837.040039 0.327352
835.871094 0.378797
834.702148 0.429461
833.533203 0.509637
832.364258 0.604162
831.194336 0.723624
830.024414 0.871790
828.854492 0.962768
827.683594 1.000000
826.513672 0.991461
825.342773 0.895975
824.170898 0.791081
823.000000 0.720999
821.828125 0.635458
820.656250 0.545422
819.483398 0.476572
818.311523 0.420590
817.138672 0.382373
815.965820 0.345683
814.791992 0.323723
813.619141 0.298756
812.445313 0.293410
811.270508 0.291837
810.096680 0.275186
808.921875 0.273241
807.747070 0.264137
806.572266 0.255038
805.396484 0.262514
804.221680 0.246641
803.045898 0.240563
801.869141 0.245403
800.693359 0.237446
799.516602 0.238899
798.339844 0.239974
797.162109 0.238041
795.985352 0.232724
794.807617 0.236432
793.628906 0.240137
792.451172 0.233321
791.272461 0.238153
790.093750 0.248240
788.915039 0.253066
787.735352 0.262019
786.556641 0.257833
785.375977 0.259652
784.196289 0.259969
783.015625 0.248285
781.835938 0.248605
780.654297 0.248549
779.473633 0.223008
778.291992 0.222209
777.110352 0.217289
775.928711 0.223234
774.747070 0.203711
773.564453 0.221262
772.381836 0.220464
771.199219 0.211808
770.015625 0.214754
768.832031 0.216203
767.648438 0.227000
766.464844 0.220967
765.280273 0.213815
764.095703 0.241423
762.911133 0.252205
761.725586 0.276803
760.541016 0.281596
759.355469 0.315885
758.168945 0.321414
756.983398 0.345228
755.796875 0.352614
754.610352 0.357758
753.422852 0.351338
752.236328 0.340818
751.048828 0.301971
749.861328 0.297058
748.672852 0.286557
747.485352 0.265258
746.296875 0.261474
745.107422 0.265884
743.918945 0.254655
742.729492 0.246409
741.540039 0.244494
740.349609 0.244811
739.160156 0.232481
737.969727 0.223504
736.779297 0.223454
735.587891 0.213739
734.397461 0.209974
733.206055 0.218473
732.013672 0.214709
730.822266 0.214661
729.629883 0.205702
728.437500 0.210853
727.244141 0.207094
726.051758 0.214097
724.858398 0.212936
723.665039 0.215855
722.470703 0.209503
721.276367 0.214646
720.082031 0.214227
718.887695 0.219367
717.693359 0.217836
716.498047 0.224083
715.302734 0.223662
714.106445 0.212505
712.911133 0.219490
711.714844 0.223511
710.517578 0.220501
709.321289 0.237096
708.124023 0.233714
706.926758 0.230334
705.729492 0.217345
704.531250 0.222100
703.333008 0.220942
702.134766 0.221261
700.936523 0.231552
699.737305 0.241099
698.538086 0.235138
697.338867 0.245788
696.138672 0.249791
694.938477 0.246045
693.738281 0.242302
692.538086 0.248146
691.336914 0.244035
690.135742 0.255036
688.934570 0.247978
687.732422 0.259341
686.531250 0.251917
685.328125 0.255542
684.125977 0.275363
682.923828 0.266099
681.720703 0.262359
680.516602 0.281430
679.313477 0.269228
678.109375 0.272845
676.905273 0.286017
675.701172 0.298817
674.496094 0.302056
673.291992 0.302722
672.085938 0.296042
670.880859 0.307358
669.674805 0.299946
668.468750 0.294739
667.262695 0.291002
666.055664 0.294238
664.849609 0.277665
663.642578 0.272101
662.434570 0.258840
661.227539 0.267579
660.019531 0.258722
658.810547 0.257564
657.602539 0.256407
656.393555 0.255250
655.184570 0.268738
653.975586 0.274900
652.765625 0.264224
651.555664 0.252822
650.345703 0.271054
649.134766 0.245392
647.924805 0.252283
646.712891 0.248204
645.501953 0.242665
644.291016 0.252841
643.079102 0.255340
641.866211 0.246882
640.654297 0.244999
639.441406 0.241658
638.228516 0.244522
637.015625 0.229506
635.801758 0.243316
634.587891 0.233048
633.374023 0.244298
632.160156 0.240961
630.945313 0.252204
629.730469 0.244859
628.514648 0.246624
627.299805 0.249481
626.083984 0.247968
624.868164 0.244998
623.651367 0.246762
622.435547 0.257258
621.218750 0.252105
620.000977 0.260413
618.784180 0.278170
617.566406 0.263565
616.347656 0.267139
615.129883 0.275798
613.911133 0.269922
612.692383 0.244799
611.473633 0.253457
610.253906 0.246501
609.034180 0.252978
607.814453 0.242396
606.594727 0.256852
605.374023 0.264046
604.153320 0.257458
602.931641 0.245435
601.710938 0.250816
600.489258 0.253294
599.267578 0.234035
598.044922 0.237965
596.822266 0.229581
595.599609 0.219753
594.376953 0.220426
593.153320 0.230146
591.929688 0.221410
590.706055 0.228954
589.481445 0.219138
588.257813 0.209687
587.032227 0.225181
585.807617 0.207061
584.582031 0.224354
583.356445 0.216717
582.130859 0.215944
580.905273 0.219866
579.678711 0.215122
578.452148 0.214712
577.224609 0.219352
575.997070 0.212448
574.769531 0.216726
573.541992 0.210907
572.313477 0.214102
571.084961 0.215133
569.856445 0.216524
568.627930 0.219716
567.398438 0.208141
566.168945 0.210973
564.939453 0.223162
563.708984 0.223470
562.478516 0.215503
561.248047 0.219049
560.016602 0.217200
558.785156 0.211757
557.553711 0.211708
556.322266 0.219205
555.089844 0.231728
553.857422 0.214433
552.625000 0.217615
551.391602 0.221154
550.158203 0.213206
548.924805 0.215668
547.690430 0.217053
546.457031 0.208752
545.222656 0.221254
543.987305 0.216184
542.752930 0.217567
541.517578 0.220383
540.281250 0.212091
539.045898 0.222428
537.809570 0.215573
536.573242 0.215164
535.335938 0.222630
534.099609 0.218642
532.861328 0.215370
531.624023 0.227123
530.385742 0.228143
529.148438 0.220224
527.909180 0.225176
526.670898 0.218691
525.431641 0.212566
524.192383 0.227161
522.952148 0.219251
521.712891 0.218843
520.472656 0.223788
519.231445 0.224806
517.991211 0.221185
516.750000 0.231477
515.508789 0.223934
514.266602 0.229585
513.024414 0.220977
511.782227 0.232328
510.540039 0.244741
509.296875 0.237560
508.053711 0.231451
506.810547 0.240296
505.566406 0.229918
504.322266 0.241250
503.078125 0.238703
501.833008 0.241136
500.587891 0.247480
499.342773 0.243511
498.097656 0.255181
496.851563 0.256898
495.605469 0.260745
494.359375 0.267431
493.112305 0.252099
491.865234 0.254525
490.618164 0.264756
489.370117 0.262565
488.123047 0.271016
486.874023 0.269178
485.625977 0.269824
484.376953 0.281457
483.127930 0.286707
481.878906 0.300457
480.628906 0.295072
479.378906 0.308105
478.128906 0.307678
476.877930 0.309728
475.626953 0.311778
474.375977 0.319134
473.125000 0.324717
471.873047 0.338078
470.621094 0.341180
469.368164 0.370436
468.115234 0.389077
466.862305 0.410536
465.609375 0.436576
464.355469 0.443887
463.102539 0.487559
461.847656 0.544270
460.593750 0.600954
459.338867 0.685834
458.083984 0.755154
456.828125 0.826204
455.572266 0.839402
454.316406 0.867751
453.060547 0.856619
451.803711 0.752489
450.546875 0.669188
449.290039 0.599660
448.032227 0.548823
446.774414 0.500826
445.516602 0.449686
444.257813 0.424601
442.999023 0.423444
441.740234 0.391697
440.481445 0.378245
439.221680 0.364096
437.961914 0.371036
436.701172 0.362867
435.441406 0.364887
434.180664 0.369364
432.918945 0.385773
431.658203 0.379012
430.396484 0.367343
429.133789 0.386546
427.872070 0.375231
426.609375 0.367778
425.346680 0.359277
424.083008 0.355686
422.819336 0.351046
421.555664 0.353763
420.291016 0.355778
419.027344 0.349041
417.762695 0.372057
416.497070 0.368468
415.231445 0.355434
413.965820 0.371087
412.700195 0.380438
411.433594 0.388037
410.166992 0.382351
408.900391 0.397632
407.632813 0.411509
406.365234 0.406869
405.097656 0.426672
403.830078 0.444022
402.561523 0.443217
401.291992 0.442062
400.023438 0.455907
398.753906 0.463469
397.484375 0.482183
396.214844 0.484506
394.944336 0.491009
393.673828 0.496463
392.402344 0.521073
391.130859 0.499007
389.859375 0.516293
388.587891 0.535310
387.315430 0.548402
386.042969 0.554182
384.770508 0.548482
383.497070 0.545914
382.223633 0.573243
380.950195 0.553641
379.676758 0.570878
378.402344 0.563443
377.126953 0.560527
375.852539 0.551015
374.577148 0.561641
373.301758 0.559768
372.025391 0.553733
370.749023 0.531051
369.472656 0.559356
368.196289 0.549858
366.918945 0.521648
365.641602 0.530876
364.363281 0.541138
363.085938 0.534078
361.807617 0.514902
360.528320 0.520660
359.249023 0.508073
357.969727 0.495837
356.690430 0.501595
355.410156 0.502509
354.129883 0.497199
352.849609 0.481867
351.568359 0.472071
350.287109 0.477828
349.005859 0.489454
347.723633 0.458944
346.441406 0.458486
345.159180 0.453195
343.875977 0.443765
342.592773 0.448140
341.309570 0.421472
340.026367 0.416540
338.742188 0.416781
337.457031 0.388762
336.172852 0.393489
334.887695 0.390980
333.602539 0.383306
332.316406 0.376669
331.030273 0.380018
329.744141 0.369944
328.457031 0.377765
327.170898 0.371479
325.882813 0.351442
324.595703 0.372669
323.307617 0.349548
322.019531 0.365268
320.730469 0.369299
319.441406 0.365772
318.152344 0.360874
316.863281 0.367649
315.573242 0.378196
314.283203 0.378788
312.992188 0.373205
311.701172 0.376541
310.410156 0.368904
309.119141 0.378409
307.827148 0.402644
306.535156 0.387469
305.242188 0.385317
303.950195 0.410901
302.656250 0.418330
301.363281 0.422332
300.069336 0.429753
298.775391 0.431013
297.480469 0.456212
296.186523 0.468747
294.891602 0.490164
293.595703 0.509177
292.299805 0.546971
291.003906 0.563228
289.708008 0.592111
288.411133 0.628149
287.114258 0.646761
285.816406 0.675942
284.518555 0.697263
283.220703 0.714479
281.922852 0.730664
280.624023 0.719572
279.325195 0.735747
278.025391 0.723977
276.725586 0.711532
275.425781 0.721226
274.125977 0.717639
272.825195 0.761702
271.523438 0.769335
270.222656 0.792612
268.920898 0.812136
267.619141 0.831309
266.316406 0.874947
265.013672 0.926718
263.710938 0.963514
262.408203 1.003349
261.104492 1.055726
259.799805 1.087369
258.496094 1.113904
257.191406 1.154337
255.886719 1.213745
254.581055 1.234461
253.275391 1.267712
251.969727 1.313826
250.663086 1.339244
249.356445 1.403271
248.049805 1.431024
246.742188 1.428964
245.434570 1.452295
244.126953 1.459707
242.818359 1.476588
241.509766 1.460986
240.201172 1.463655
238.891602 1.414931
237.582031 1.405778
236.271484 1.398320
234.961914 1.333096
233.650391 1.327686
232.339844 1.296617
231.028320 1.255098
229.716797 1.237900
228.405273 1.201816
227.092773 1.170136
225.779297 1.143867
224.466797 1.140537
223.153320 1.117996
221.839844 1.114000
220.525391 1.084067
219.210938 1.085806
217.896484 1.062629
216.581055 1.040474
215.265625 1.025060
213.950195 1.001579
212.633789 0.963984
211.317383 0.958017
210.000977 0.983989
208.683594 0.930631
207.366211 0.926357
206.048828 0.929474
204.730469 0.927553
203.412109 0.912538
202.092773 0.910958
200.773438 0.912062
199.454102 0.901424
198.133789 0.913933
196.814453 0.919059
195.493164 0.895353
194.172852 0.899475
192.851563 0.903595
191.529297 0.917091
190.208008 0.900777
188.885742 0.913597
187.562500 0.925406
186.239258 0.938547
184.916016 0.942649
183.592773 0.949758
182.268555 0.989294
180.944336 0.991039
179.619141 0.993116
178.293945 1.000204
176.968750 1.030667
175.643555 1.031396
174.317383 1.052487
172.990234 1.066559
171.664063 1.069613
170.336914 1.108354
169.008789 1.137405
167.680664 1.134770
166.352539 1.145467
165.024414 1.159491
163.695313 1.209814
162.366211 1.265771
161.036133 1.306385
159.706055 1.354631
158.375977 1.395198
157.044922 1.469675
155.713867 1.513182
154.382813 1.582932
153.050781 1.611428
151.718750 1.703046
150.385742 1.717873
149.053711 1.748966
147.719727 1.799300
146.386719 1.820727
145.052734 1.838160
143.717773 1.852598
142.383789 1.905834
141.048828 1.890733
139.712891 1.955863
138.377930 1.928494
137.041016 1.901138
135.705078 1.941701
134.368164 1.934225
133.031250 1.911854
131.693359 1.904059
130.355469 1.920090
129.017578 1.911964
127.678711 1.937904
126.339844 1.918206
125.000977 1.921324
123.661133 1.911222
122.321289 1.903768
120.980469 1.908537
119.639648 1.895144
118.298828 1.896281
116.957031 1.918206
115.615234 1.910428
114.273438 1.922772
112.930664 1.940714
111.587891 1.985016
110.244141 1.991396
108.900391 1.977676
107.556641 1.927076
106.211914 1.907782
104.867188 1.830234
103.522461 1.692834
102.176758 1.555508
100.831055 1.412008
99.484375 1.255433
98.137695 1.045031
