3192.884766 0.013907
3192.178711 0.022596
3191.472656 0.008689
3190.765625 0.027801
3190.059570 0.017373
3189.352539 0.013896
3188.646484 0.020841
3187.939453 0.010419
3187.232422 0.001736
3186.525391 0.017359
3185.818359 0.022564
3185.111328 0.013883
3184.404297 0.013881
3183.696289 0.022553
3182.989258 0.024284
3182.281250 0.013874
3181.573242 0.019074
3180.865234 0.017338
3180.157227 0.022535
3179.449219 0.017332
3178.741211 0.020795
3178.033203 0.017326
3177.324219 0.025986
3176.616211 0.012125
3175.907227 0.017318
3175.198242 0.012121
3174.489258 0.024238
3173.780273 0.001731
3173.071289 0.032884
3172.362305 0.019035
3171.652344 0.022492
3170.943359 0.005190
3170.233398 0.012107
3169.523438 0.015564
3168.814453 0.019019
3168.104492 0.025931
3167.394531 0.027656
3166.683594 0.017282
3165.973633 0.020735
3165.263672 0.020732
3164.552734 0.022456
3163.841797 0.027633
3163.130859 0.017268
3162.420898 0.018992
3161.709961 0.020715
3160.998047 0.024164
3160.287109 0.020708
3159.576172 0.029332
3158.864258 0.003450
3158.153320 0.012074
3157.441406 0.039665
3156.729492 0.018967
3156.017578 0.036204
3155.305664 0.015513
3154.593750 0.037916
3153.880859 0.017232
3153.168945 0.022397
3152.456055 0.022394
3151.744141 0.017223
3151.031250 0.020664
3150.318359 0.041322
3149.605469 0.018936
3148.892578 0.012048
3148.178711 0.018930
3147.465820 0.008603
3146.751953 0.032686
3146.039063 0.025801
3145.325195 0.015478
3144.611328 0.015475
3143.897461 0.018911
3143.183594 0.024065
3142.468750 0.022342
3141.754883 0.022338
3141.041016 0.027489
3140.326172 0.008589
3139.611328 0.020610
3138.896484 0.022323
3138.181641 0.022320
3137.466797 0.025749
3136.751953 0.022312
3136.037109 0.024025
3135.321289 0.027452
3134.605469 0.015439
3133.890625 0.015437
3133.174805 0.027438
3132.458984 0.024005
3131.743164 0.017143
3131.027344 0.017140
3130.310547 0.027420
3129.594727 0.017135
3128.877930 0.025698
3128.161133 0.015416
3127.445313 0.030827
3126.728516 0.034246
3126.010742 0.029104
3125.293945 0.027388
3124.577148 0.041075
3123.859375 0.027378
3123.142578 0.029085
3122.424805 0.030790
3121.707031 0.017103
3120.989258 0.022230
3120.271484 0.023936
3119.553711 0.017094
3118.835938 0.042728
3118.117188 0.032468
3117.399414 0.018794
3116.680664 0.027332
3115.961914 0.023911
3115.243164 0.017077
3114.524414 0.032440
3113.805664 0.027313
3113.086914 0.017068
3112.367188 0.032424
3111.648438 0.027299
3110.928711 0.022177
3110.208984 0.018762
3109.489258 0.023875
3108.769531 0.044331
3108.049805 0.027276
3107.329102 0.030680
3106.609375 0.034083
3105.888672 0.011927
3105.168945 0.022147
3104.448242 0.028956
3103.727539 0.035763
3103.006836 0.018730
3102.285156 0.023834
3101.564453 0.028936
3100.843750 0.028931
3100.122070 0.018717
3099.400391 0.032324
3098.678711 0.023813
3097.957031 0.030612
3097.235352 0.015303
3096.513672 0.034001
3095.791992 0.025497
3095.069336 0.028891
3094.346680 0.032285
3093.625000 0.032279
3092.902344 0.015287
3092.179688 0.044156
3091.457031 0.035658
3090.733398 0.030559
3090.010742 0.016974
3089.287109 0.030548
3088.564453 0.023756
3087.840820 0.032234
3087.117188 0.030532
3086.393555 0.025439
3085.669922 0.037304
3084.946289 0.032212
3084.221680 0.033901
3083.498047 0.013558
3082.773438 0.032195
3082.048828 0.035577
3081.324219 0.025408
3080.599609 0.025404
3079.875000 0.030479
3079.149414 0.025395
3078.424805 0.027083
3077.699219 0.027078
3076.974609 0.038918
3076.249023 0.016918
3075.523438 0.032138
3074.797852 0.020294
3074.071289 0.042272
3073.345703 0.023668
3072.619141 0.023664
3071.893555 0.025350
3071.166992 0.040553
3070.440430 0.033788
3069.713867 0.021958
3068.987305 0.025332
3068.259766 0.025328
3067.533203 0.043893
3066.805664 0.020255
3066.079102 0.035440
3065.351563 0.048932
3064.624023 0.021931
3063.896484 0.032048
3063.168945 0.033728
3062.440430 0.033722
3061.712891 0.035402
3060.984375 0.042138
3060.255859 0.028649
3059.527344 0.021904
3058.798828 0.037062
3058.070313 0.028633
3057.341797 0.008420
3056.613281 0.038726
3055.883789 0.033668
3055.154297 0.028613
3054.424805 0.030291
3053.695313 0.033650
3052.965820 0.038691
3052.236328 0.026911
3051.506836 0.038677
3050.776367 0.020176
3050.046875 0.015129
3049.316406 0.047060
3048.585938 0.035289
3047.855469 0.043683
3047.125000 0.033596
3046.393555 0.028552
3045.663086 0.031905
3044.931641 0.036936
3044.201172 0.035251
3043.469727 0.043636
3042.738281 0.023492
3042.006836 0.050331
3041.275391 0.028516
3040.542969 0.021802
3039.811523 0.036889
3039.079102 0.023471
3038.346680 0.025143
3037.614258 0.035194
3036.881836 0.038538
3036.149414 0.033506
3035.416992 0.050249
3034.683594 0.015072
3033.951172 0.031813
3033.217773 0.031807
3032.484375 0.036823
3031.750977 0.046857
3031.017578 0.011712
3030.284180 0.040149
3029.549805 0.040141
3028.816406 0.040134
3028.082031 0.036783
3027.347656 0.038448
3026.613281 0.035098
3025.878906 0.033421
3025.144531 0.041768
3024.410156 0.043431
3023.674805 0.036743
3022.939453 0.050095
3022.205078 0.021704
3021.469727 0.025038
3020.734375 0.033378
3019.999023 0.033372
3019.262695 0.040039
3018.527344 0.035028
3017.791016 0.043360
3017.054688 0.035015
3016.318359 0.038343
3015.582031 0.040003
3014.845703 0.033329
3014.109375 0.041654
3013.373047 0.026654
3012.635742 0.049967
3011.898438 0.063280
3011.161133 0.041624
3010.424805 0.048275
3009.686523 0.029958
3008.949219 0.044929
3008.211914 0.041593
3007.473633 0.041586
3006.736328 0.036589
3005.998047 0.039908
3005.259766 0.046550
3004.521484 0.038231
3003.782227 0.049857
3003.043945 0.038217
3002.305664 0.048177
3001.566406 0.053151
3000.827148 0.028231
3000.087891 0.039849
2999.348633 0.051462
2998.609375 0.053112
2997.870117 0.054762
2997.129883 0.048115
2996.389648 0.058059
2995.650391 0.049756
2994.910156 0.054721
2994.169922 0.046422
2993.429688 0.048071
2992.688477 0.056348
2991.948242 0.059652
2991.207031 0.049701
2990.465820 0.033128
2989.725586 0.059619
2988.983398 0.044706
2988.242188 0.054630
2987.500977 0.046344
2986.759766 0.051300
2986.017578 0.056254
2985.275391 0.052936
2984.533203 0.054580
2983.791016 0.041341
2983.048828 0.047946
2982.306641 0.061161
2981.563477 0.062803
2980.821289 0.061139
2980.078125 0.062779
2979.334961 0.077634
2978.591797 0.057801
2977.848633 0.056140
2977.105469 0.049526
2976.361328 0.057769
2975.618164 0.085812
2974.874023 0.047848
2974.129883 0.069284
2973.385742 0.077518
2972.641602 0.070907
2971.897461 0.075840
2971.152344 0.062639
2970.408203 0.077460
2969.663086 0.087332
2968.917969 0.087316
2968.172852 0.082358
2967.427734 0.077402
2966.682617 0.082327
2965.936523 0.083958
2965.191406 0.103693
2964.445313 0.102028
2963.699219 0.098719
2962.953125 0.111860
2962.207031 0.105260
2961.460938 0.111818
2960.713867 0.111797
2959.967773 0.115064
2959.220703 0.103538
2958.473633 0.106805
2957.726563 0.142927
2956.979492 0.090339
2956.232422 0.119882
2955.484375 0.128069
2954.737305 0.123120
2953.989258 0.129662
2953.241211 0.134561
2952.493164 0.137817
2951.745117 0.132870
2950.997070 0.124644
2950.248047 0.132820
2949.500000 0.114761
2948.750977 0.126213
2948.001953 0.122912
2947.252930 0.137635
2946.503906 0.126141
2945.754883 0.145772
2945.004883 0.144107
2944.255859 0.122795
2943.505859 0.139142
2942.755859 0.129296
2942.005859 0.109635
2941.255859 0.121067
2940.504883 0.140672
2939.754883 0.125927
2939.003906 0.134079
2938.252930 0.106262
2937.502930 0.137297
2936.750977 0.114392
2936.000000 0.119272
2935.249023 0.135585
2934.497070 0.120860
2933.746094 0.106141
2932.994141 0.119182
2932.242188 0.117527
2931.490234 0.115872
2930.738281 0.091375
2929.985352 0.092989
2929.233398 0.092971
2928.480469 0.101107
2927.727539 0.119023
2926.974609 0.096178
2926.221680 0.099420
2925.468750 0.105919
2924.715820 0.109157
2923.961914 0.097734
2923.208008 0.102601
2922.455078 0.089555
2921.701172 0.094422
2920.946289 0.105798
2920.192383 0.074858
2919.438477 0.091114
2918.683594 0.086217
2917.928711 0.094332
2917.173828 0.091062
2916.418945 0.076412
2915.664063 0.094278
2914.909180 0.095885
2914.153320 0.100741
2913.398438 0.092599
2912.642578 0.116945
2911.886719 0.081196
2911.130859 0.090923
2910.375000 0.089282
2909.619141 0.102249
2908.862305 0.074644
2908.105469 0.089231
2907.349609 0.095702
2906.592773 0.098927
2905.835938 0.100529
2905.078125 0.087541
2904.321289 0.108595
2903.563477 0.069682
2902.806641 0.111793
2902.048828 0.102053
2901.291016 0.092316
2900.533203 0.084202
2899.774414 0.092280
2899.016602 0.089025
2898.257813 0.093863
2897.500000 0.092227
2896.741211 0.090591
2895.982422 0.093809
2895.222656 0.080854
2894.463867 0.108324
2893.705078 0.087289
2892.945313 0.116363
2892.185547 0.096950
2891.425781 0.098547
2890.666016 0.098528
2889.906250 0.087205
2889.146484 0.075886
2888.385742 0.101699
2887.625000 0.101680
2886.864258 0.087137
2886.103516 0.082280
2885.342773 0.093556
2884.582031 0.080636
2883.821289 0.090295
2883.059570 0.104786
2882.297852 0.095095
2881.536133 0.075739
2880.774414 0.082169
2880.012695 0.088597
2879.250977 0.098243
2878.488281 0.072460
2877.726563 0.093375
2876.963867 0.090137
2876.201172 0.082074
2875.438477 0.090103
2874.674805 0.075607
2873.912109 0.096501
2873.149414 0.106130
2872.385742 0.099679
2871.622070 0.088408
2870.858398 0.081962
2870.094727 0.091587
2869.330078 0.085143
2868.566406 0.080308
2867.801758 0.093139
2867.038086 0.089910
2866.273438 0.086682
2865.508789 0.089875
2864.743164 0.088253
2863.978516 0.086632
2863.212891 0.099447
2862.448242 0.101031
2861.682617 0.073754
2860.916992 0.083358
2860.151367 0.089753
2859.384766 0.091338
2858.619141 0.092922
2857.852539 0.073682
2857.086914 0.091284
2856.320313 0.091266
2855.553711 0.089648
2854.786133 0.083228
2854.019531 0.102415
2853.251953 0.071996
2852.485352 0.075181
2851.717773 0.086362
2850.950195 0.110329
2850.182617 0.065545
2849.414063 0.100696
2848.646484 0.071912
2847.877930 0.111841
2847.110352 0.086260
2846.341797 0.095826
2845.573242 0.089420
2844.803711 0.087806
2844.035156 0.079808
2843.266602 0.086176
2842.497070 0.086159
2841.727539 0.092523
2840.958008 0.078151
2840.188477 0.086108
2839.418945 0.089280
2838.648438 0.074917
2837.878906 0.082870
2837.108398 0.068514
2836.337891 0.074872
2835.567383 0.095563
2834.795898 0.090767
2834.025391 0.101894
2833.254883 0.106649
2832.483398 0.097079
2831.711914 0.081149
2830.940430 0.081133
2830.168945 0.089069
2829.397461 0.074740
2828.625000 0.084265
2827.852539 0.084248
2827.081055 0.101713
2826.308594 0.087393
2825.536133 0.074666
2824.762695 0.073063
2823.990234 0.065109
2823.216797 0.082561
2822.444336 0.080957
2821.670898 0.074593
2820.897461 0.087272
2820.123047 0.074563
2819.349609 0.087238
2818.576172 0.072948
2817.801758 0.084032
2817.027344 0.071334
2816.252930 0.074490
2815.478516 0.114089
2814.704102 0.060202
2813.928711 0.064942
2813.154297 0.069680
2812.378906 0.079166
2811.603516 0.079150
2810.828125 0.085465
2810.052734 0.074372
2809.276367 0.072775
2808.500977 0.091742
2807.724609 0.074328
2806.948242 0.056920
2806.171875 0.069556
2805.395508 0.074283
2804.619141 0.086910
2803.841797 0.091632
2803.064453 0.082137
2802.288086 0.067907
2801.510742 0.078946
2800.733398 0.074195
2799.955078 0.078915
2799.177734 0.083633
2798.399414 0.072573
2797.621094 0.083600
2796.842773 0.088314
2796.064453 0.080413
2795.286133 0.099314
2794.507813 0.064620
2793.728516 0.080365
2792.950195 0.091378
2792.170898 0.094510
2791.391602 0.066144
2790.611328 0.078727
2789.832031 0.066117
2789.052734 0.099156
2788.272461 0.080253
2787.492188 0.070797
2786.711914 0.080221
2785.931641 0.094359
2785.151367 0.069183
2784.370117 0.086461
2783.588867 0.070727
2782.808594 0.073855
2782.027344 0.092694
2781.246094 0.067543
2780.463867 0.086375
2779.682617 0.073796
2778.900391 0.080061
2778.119141 0.091031
2777.336914 0.080029
2776.554688 0.086288
2775.771484 0.081565
2774.989258 0.101936
2774.206055 0.081533
2773.423828 0.059570
2772.640625 0.083067
2771.857422 0.084618
2771.074219 0.089301
2770.290039 0.079885
2769.506836 0.072038
2768.722656 0.093944
2767.938477 0.072009
2767.154297 0.078255
2766.370117 0.079804
2765.585938 0.092304
2764.800781 0.073516
2764.016602 0.100086
2763.231445 0.087558
2762.446289 0.073471
2761.661133 0.089085
2760.875000 0.084380
2760.089844 0.071865
2759.303711 0.070288
2758.518555 0.081206
2757.732422 0.081189
2756.945313 0.071807
2756.159180 0.078035
2755.373047 0.110787
2754.585938 0.096724
2753.798828 0.084227
2753.012695 0.095126
2752.224609 0.099784
2751.437500 0.077941
2750.650391 0.096627
2749.862305 0.073235
2749.074219 0.081009
2748.287109 0.077878
2747.499023 0.080976
2746.709961 0.091858
2745.921875 0.099623
2745.132813 0.085596
2744.344727 0.085579
2743.555664 0.080894
2742.766602 0.096431
2741.977539 0.073086
2741.187500 0.079290
2740.398438 0.097927
2739.608398 0.065272
2738.818359 0.088565
2738.028320 0.088547
2737.238281 0.077657
2736.448242 0.085405
2735.657227 0.090045
2734.866211 0.096236
2734.075195 0.071386
2733.284180 0.080681
2732.493164 0.103934
2731.702148 0.083750
2730.910156 0.083733
2730.119141 0.088367
2729.327148 0.069749
2728.535156 0.069735
2727.743164 0.079017
2726.950195 0.072805
2726.158203 0.072790
2725.365234 0.085162
2724.572266 0.069664
2723.779297 0.072745
2722.986328 0.072731
2722.193359 0.081999
2721.399414 0.081982
2720.606445 0.085058
2719.812500 0.088133
2719.018555 0.094299
2718.224609 0.069550
2717.430664 0.108167
2716.635742 0.098876
2715.840820 0.080320
2715.046875 0.081848
2714.251953 0.081831
2713.456055 0.092620
2712.661133 0.097231
2711.866211 0.087953
2711.070313 0.086392
2710.274414 0.100256
2709.478516 0.095610
2708.682617 0.095590
2707.886719 0.090946
2707.089844 0.078598
2706.293945 0.075500
2705.497070 0.072404
2704.700195 0.087791
2703.903320 0.076994
2703.105469 0.078517
2702.308594 0.089276
2701.510742 0.100030
2700.712891 0.095394
2699.915039 0.086144
2699.117188 0.096892
2698.319336 0.076883
2697.520508 0.079942
2696.722656 0.093759
2695.923828 0.079909
2695.125000 0.072210
2694.326172 0.089092
2693.526367 0.116718
2692.727539 0.061418
2691.927734 0.082897
2691.127930 0.092089
2690.328125 0.087466
2689.528320 0.085914
2688.728516 0.108904
2687.927734 0.088945
2687.126953 0.082794
2686.326172 0.088909
2685.525391 0.081227
2684.724609 0.101130
2683.923828 0.090385
2683.122070 0.090367
2682.321289 0.082691
2681.519531 0.084205
2680.717773 0.084188
2679.915039 0.087231
2679.113281 0.085683
2678.310547 0.099433
2677.508789 0.104000
2676.706055 0.085630
2675.903320 0.088669
2675.099609 0.097822
2674.296875 0.088633
2673.493164 0.096253
2672.690430 0.084013
2671.886719 0.088577
2671.083008 0.100774
2670.278320 0.106859
2669.474609 0.091574
2668.669922 0.093081
2667.865234 0.090011
2667.060547 0.112871
2666.255859 0.089973
2665.451172 0.118923
2664.646484 0.096033
2663.840820 0.083821
2663.035156 0.085327
2662.229492 0.080739
2661.423828 0.091384
2660.618164 0.092887
2659.811523 0.102002
2659.004883 0.092848
2658.199219 0.097394
2657.391602 0.086724
2656.584961 0.101917
2655.778320 0.077562
2655.033203 0.094479
2654.970703 0.091231
2654.227539 0.091431
2654.164063 0.101853
2653.421875 0.080751
2653.356445 0.098792
2652.616211 0.089878
2652.548828 0.091174
2651.810547 0.094433
2651.740234 0.104828
2651.004883 0.067006
2650.932617 0.094173
2650.198242 0.080699
2650.124023 0.112377
2649.392578 0.089820
2649.316406 0.109316
2648.585938 0.100461
2648.507813 0.112329
2647.779297 0.092835
2647.699219 0.101682
2646.972656 0.094341
2646.889648 0.094074
2646.166016 0.103454
2646.081055 0.092537
2645.359375 0.101916
2645.271484 0.098585
2644.552734 0.109504
2644.461914 0.078851
2643.745117 0.115569
2643.652344 0.118252
2642.938477 0.126193
2642.842773 0.110648
2642.130859 0.104890
2642.033203 0.106079
2641.323242 0.089674
2641.222656 0.112117
2640.515625 0.101817
2640.413086 0.080283
2639.708008 0.100281
2639.602539 0.090867
2638.899414 0.091149
2638.791992 0.101447
2638.091797 0.107842
2637.981445 0.102939
2637.283203 0.103269
2637.169922 0.087783
2636.475586 0.075920
2636.359375 0.107436
2635.666992 0.098680
2635.547852 0.105900
2634.858398 0.104736
2634.736328 0.102853
2634.049805 0.109271
2633.924805 0.130051
2633.241211 0.088010
2633.113281 0.095250
2632.431641 0.095581
2632.300781 0.105810
2631.623047 0.103150
2631.489258 0.099743
2630.813477 0.101616
2630.676758 0.105766
2630.003906 0.087951
2629.864258 0.093658
2629.194336 0.097034
2629.051758 0.092128
2628.384766 0.101565
2628.238281 0.105698
2627.575195 0.086392
2627.425781 0.102657
2626.765625 0.098501
2626.612305 0.096598
2625.955078 0.078788
2625.798828 0.114685
2625.145508 0.110587
2624.985352 0.096557
2624.334961 0.081791
2624.171875 0.098044
2623.524414 0.118122
2623.358398 0.096516
2622.713867 0.090848
2622.543945 0.101018
2621.903320 0.089319
2621.729492 0.120593
2621.092773 0.086277
2620.916016 0.119061
2620.281250 0.104423
2620.100586 0.122049
2619.469727 0.095327
2619.286133 0.099426
2618.659180 0.086234
2618.471680 0.106935
2617.847656 0.099833
2617.656250 0.106913
2617.036133 0.114940
2616.840820 0.090329
2616.224609 0.101311
2616.025391 0.106867
2615.412109 0.102806
2615.209961 0.091796
2614.600586 0.107324
2614.394531 0.099299
2613.788086 0.105794
2613.578125 0.100782
2612.976563 0.098221
2612.762695 0.121815
2612.164063 0.099715
2611.946289 0.106753
2611.351563 0.098188
2611.129883 0.114247
2610.539063 0.098171
2610.312500 0.121737
2609.726563 0.087584
2609.496094 0.090156
2608.913086 0.113236
2608.678711 0.085630
2608.100586 0.089064
2607.862305 0.103635
2607.287109 0.101124
2607.044922 0.115626
2606.473633 0.107143
2606.227539 0.114100
2605.660156 0.129756
2605.409180 0.079553
2604.846680 0.093530
2604.591797 0.103546
2604.033203 0.098038
2603.773438 0.106525
2603.218750 0.082942
2602.955078 0.105002
2602.405273 0.116098
2602.136719 0.101980
2601.590820 0.094973
2601.318359 0.112454
2600.776367 0.102494
2600.500000 0.080949
2599.961914 0.117546
2599.680664 0.092922
2599.147461 0.106979
2598.861328 0.074921
2598.333008 0.103948
2598.042969 0.082395
2597.518555 0.103930
2597.222656 0.091364
2596.703125 0.097888
2596.403320 0.104822
2595.888672 0.105400
2595.583984 0.104799
2595.073242 0.115920
2594.763672 0.091305
2594.257813 0.091817
2593.943359 0.113733
2593.442383 0.090296
2593.123047 0.113708
2592.625977 0.100814
2592.302734 0.082271
2591.810547 0.112832
2591.482422 0.094218
2590.994141 0.105292
2590.661133 0.103168
2590.178711 0.099258
2589.839844 0.094177
2589.362305 0.105255
2589.018555 0.109102
2588.545898 0.105237
2588.197266 0.091148
2587.729492 0.106722
2587.375977 0.104573
2586.913086 0.106704
2586.554688 0.101563
2586.095703 0.118706
2585.732422 0.100048
2585.279297 0.109672
2584.910156 0.114956
2584.461914 0.103644
2584.087891 0.098512
2583.644531 0.091612
2583.265625 0.110429
2582.827148 0.102107
2582.443359 0.108913
2582.009766 0.115601
2581.620117 0.120823
2581.192383 0.099069
2580.796875 0.102901
2580.374023 0.111058
2579.973633 0.080514
2579.556641 0.096034
2579.150391 0.101366
2578.738281 0.108019
2578.327148 0.110286
2577.919922 0.115501
2577.503906 0.104302
2577.101563 0.109482
2576.679688 0.111727
2576.283203 0.109463
2575.855469 0.110214
2575.464844 0.115440
2575.031250 0.107212
2574.645508 0.112422
2574.207031 0.114632
2573.827148 0.122894
2573.381836 0.098234
2573.007813 0.092903
2572.557617 0.110118
2572.188477 0.106371
2571.732422 0.111581
2571.369141 0.094369
2570.907227 0.107095
2570.549805 0.103338
2570.082031 0.110046
2569.730469 0.106315
2569.256836 0.111508
2568.910156 0.125759
2568.430664 0.120403
2568.090820 0.110768
2567.605469 0.124835
2567.270508 0.118232
2566.779297 0.102521
2566.450195 0.103248
2565.953125 0.115867
2565.629883 0.121183
2565.125977 0.090594
2564.809570 0.124153
2564.299805 0.112847
2563.989258 0.110671
2563.472656 0.100946
2563.167969 0.118128
2562.646484 0.097956
2562.346680 0.110632
2561.819336 0.097934
2561.526367 0.095665
2560.992188 0.094946
2560.705078 0.104615
2560.164063 0.111240
2559.883789 0.112068
2559.336914 0.129010
2559.061523 0.092626
2558.508789 0.106744
2558.240234 0.097091
2557.680664 0.117096
2557.417969 0.106035
2556.852539 0.103733
2556.596680 0.109002
2556.024414 0.099266
2555.774414 0.120926
2555.195313 0.114056
2554.952148 0.116427
2554.367188 0.114031
2554.129883 0.120884
2553.538086 0.112525
2553.307617 0.120862
2552.708984 0.109540
2552.484375 0.101446
2551.878906 0.118396
2551.662109 0.110378
2551.049805 0.099134
2550.838867 0.102902
2550.219727 0.122781
2550.015625 0.126741
2549.390625 0.113880
2549.192383 0.108828
2548.560547 0.107941
2548.369141 0.104337
2547.730469 0.099047
2547.544922 0.123692
2546.899414 0.112327
2546.721680 0.110260
2546.069336 0.112302
2545.897461 0.107261
2545.238281 0.110800
2545.074219 0.117668
2544.407227 0.116683
2544.250000 0.101266
2543.576172 0.122564
2543.425781 0.092314
2542.745117 0.106297
2542.600586 0.108673
2541.913086 0.113654
2541.776367 0.119073
2541.082031 0.118056
2540.951172 0.126492
2540.250000 0.110653
2540.126953 0.114566
2539.417969 0.110628
2539.301758 0.117521
2538.585938 0.109129
2538.476563 0.126424
2537.752930 0.104681
2537.651367 0.115992
2536.920898 0.120873
2536.826172 0.115971
2536.087891 0.109056
2536.000000 0.121896
2535.254883 0.111979
2535.174805 0.104039
2534.421875 0.100169
2534.348633 0.092132
2533.587891 0.114874
2533.522461 0.132231
2532.754883 0.114849
2532.696289 0.130722
2531.920898 0.122184
2531.870117 0.127728
2531.086914 0.113326
2531.042969 0.108400
2530.252930 0.132429
2530.216797 0.114320
2529.418945 0.130928
2529.389648 0.133596
2528.583984 0.119133
2528.562500 0.148413
2527.749023 0.104402
2527.735352 0.135032
2526.914063 0.119080
2526.908203 0.143909
2526.081055 0.113174
2526.079102 0.114216
2525.253906 0.110210
2525.244141 0.131993
2524.425781 0.127814
2524.409180 0.142348
2523.597656 0.121911
2523.573242 0.121567
2522.769531 0.124510
2522.737305 0.095451
2521.941406 0.130415
2521.901367 0.130665
2521.113281 0.115574
2521.065430 0.117425
2520.285156 0.114072
2520.228516 0.136476
2519.456055 0.111089
2519.392578 0.126175
2518.627930 0.116992
2518.555664 0.136415
2517.798828 0.119932
2517.718750 0.114387
2516.969727 0.143596
2516.881836 0.124624
2516.140625 0.113968
2516.043945 0.120198
2515.311523 0.156863
2515.207031 0.140688
2514.481445 0.125763
2514.369141 0.108423
2513.651367 0.130178
2513.531250 0.134766
2512.822266 0.130154
2512.693359 0.106909
2511.992188 0.112385
2511.855469 0.136169
2511.162109 0.127150
2511.016602 0.121500
2510.332031 0.135996
2510.177734 0.140498
2509.500977 0.133015
2509.338867 0.134613
2508.670898 0.134469
2508.500000 0.133120
2507.839844 0.138876
2507.661133 0.136015
2507.008789 0.143282
2506.821289 0.116976
2506.177734 0.135872
2505.982422 0.128644
2505.346680 0.104838
2505.142578 0.135923
2504.515625 0.125488
2504.302734 0.124202
2503.683594 0.112180
2503.461914 0.116870
2502.852539 0.154957
2502.622070 0.127067
2502.020508 0.129845
2501.781250 0.140180
2501.188477 0.144574
2500.940430 0.131389
2500.356445 0.125372
2500.099609 0.129899
2499.524414 0.122400
2499.258789 0.137166
2498.691406 0.147443
2498.416992 0.132758
2497.859375 0.120881
2497.576172 0.135645
2497.026367 0.129702
2496.734375 0.142905
2496.193359 0.113468
2495.892578 0.134125
2495.360352 0.113447
2495.050781 0.144297
2494.527344 0.138469
2494.208008 0.141350
2493.694336 0.138443
2493.365234 0.116551
2492.860352 0.142835
2492.523438 0.150024
2492.027344 0.161948
2491.680664 0.139797
2491.193359 0.133950
2490.836914 0.148500
2490.359375 0.154530
2489.994141 0.154288
2489.525391 0.154501
2489.150391 0.145521
2488.691406 0.154472
2488.306641 0.151308
2487.856445 0.132380
2487.462891 0.139637
2487.022461 0.129415
2486.619141 0.127971
2486.187500 0.136742
2485.775391 0.152657
2485.352539 0.127897
2484.930664 0.120644
2484.517578 0.145510
2484.085938 0.161306
2483.682617 0.126380
2483.241211 0.130759
2482.846680 0.155741
2482.396484 0.152517
2482.011719 0.165995
2481.550781 0.145221
2481.175781 0.148340
2480.706055 0.158254
2480.339844 0.162997
2479.860352 0.145154
2479.503906 0.136539
2479.014648 0.130608
2478.667969 0.158532
2478.168945 0.136382
2477.832031 0.145294
2477.322266 0.130548
2476.995117 0.127659
2476.476563 0.142119
2476.158203 0.136438
2475.629883 0.152235
2475.322266 0.148147
2474.783203 0.136255
2474.485352 0.129054
2473.936523 0.150716
2473.647461 0.137828
2473.088867 0.150681
2472.810547 0.136336
2472.242188 0.146300
2471.973633 0.152433
2471.394531 0.149163
2471.135742 0.142147
2470.546875 0.147680
2470.297852 0.146516
2469.698242 0.137513
2469.459961 0.172856
2468.850586 0.150506
2468.622070 0.146461
2468.001953 0.143237
2467.784180 0.139112
2467.153320 0.157669
2466.946289 0.161047
2466.304688 0.150401
2466.107422 0.133205
2465.456055 0.135908
2465.268555 0.147815
2464.607422 0.147440
2464.429688 0.150713
2463.757813 0.115612
2463.590820 0.125815
2462.908203 0.145926
2462.751953 0.165284
2462.058594 0.132892
2461.913086 0.153553
2461.208984 0.138637
2461.073242 0.134517
2460.358398 0.135717
2460.233398 0.149110
2459.508789 0.158781
2459.394531 0.141774
2458.658203 0.142870
2458.554688 0.151977
2457.807617 0.144279
2457.713867 0.128571
2456.956055 0.145688
2456.874023 0.135851
2456.105469 0.142769
2456.033203 0.160654
2455.253906 0.135527
2455.193359 0.137260
2454.402344 0.149909
2454.352539 0.157673
2453.550781 0.146992
2453.511719 0.143047
2452.699219 0.113820
2452.670898 0.148858
2451.846680 0.126757
2451.829102 0.134238
2450.995117 0.136808
2450.988281 0.144425
2450.146484 0.123818
2450.142578 0.129812
2449.304688 0.168410
2449.290039 0.138537
2448.462891 0.139589
2448.436523 0.148717
2447.621094 0.128281
2447.583984 0.130924
2446.779297 0.132629
2446.730469 0.132331
2445.937500 0.126775
2445.876953 0.135176
2445.094727 0.134036
2445.023438 0.145208
2444.251953 0.116531
2444.169922 0.113552
2443.409180 0.139810
2443.315430 0.130769
2442.566406 0.152888
2442.460938 0.117808
2441.723633 0.122288
2441.606445 0.133580
2440.879883 0.113531
2440.751953 0.132112
2440.037109 0.133883
2439.897461 0.155051
2439.193359 0.125128
2439.041992 0.107649
2438.349609 0.125104
2438.186523 0.134888
2437.505859 0.132352
2437.331055 0.121944
2436.662109 0.119240
2436.475586 0.136258
2435.817383 0.132302
2435.619141 0.131924
2434.973633 0.130823
2434.763672 0.123290
2434.128906 0.129345
2433.907227 0.127561
2433.284180 0.120602
2433.050781 0.120366
2432.439453 0.139465
2432.194336 0.131798
2431.593750 0.156869
2431.336914 0.117444
2430.749023 0.121986
2430.479492 0.133167
2429.903320 0.140837
2429.622070 0.125977
2429.058594 0.121939
2428.764648 0.120222
2428.212891 0.130624
2427.907227 0.123055
2427.367188 0.120441
2427.048828 0.113012
2426.520508 0.126222
2426.191406 0.112985
2425.674805 0.124747
2425.333008 0.128686
2424.828125 0.117472
2424.473633 0.122937
2423.982422 0.130499
2423.615234 0.132911
2423.135742 0.110178
2422.755859 0.115734
2422.289063 0.140596
2421.897461 0.121420
2421.441406 0.118831
2421.038086 0.124247
2420.594727 0.137644
2420.177734 0.135639
2419.747070 0.127477
2419.318359 0.111340
2418.900391 0.147729
2418.458008 0.128438
2418.052734 0.140461
2417.597656 0.101299
2417.205078 0.098449
2416.737305 0.116965
2416.356445 0.125932
2415.876953 0.124067
2415.508789 0.125908
2415.015625 0.124037
2414.660156 0.143247
2414.155273 0.121156
2413.812500 0.109946
2413.293945 0.118276
2412.963867 0.130175
2412.115234 0.118581
2411.266602 0.120004
2410.416992 0.151783
2409.568359 0.135856
2408.718750 0.134384
2407.869141 0.144472
2407.019531 0.138666
2406.169922 0.118421
2405.319336 0.108291
2404.469727 0.135699
2403.619141 0.140002
2402.768555 0.131317
2401.917969 0.139948
2401.066406 0.137036
2400.215820 0.126914
2399.364258 0.119680
2398.513672 0.112449
2397.662109 0.131165
2396.810547 0.112405
2395.958008 0.119588
2395.106445 0.148375
2394.253906 0.129623
2393.402344 0.133918
2392.549805 0.116616
2391.697266 0.122351
2390.843750 0.141036
2389.991211 0.113670
2389.137695 0.152490
2388.284180 0.135201
2387.430664 0.117918
2386.577148 0.143775
2385.723633 0.137997
2384.869141 0.132221
2384.015625 0.136506
2383.161133 0.117804
2382.306641 0.130708
2381.452148 0.145043
2380.597656 0.120607
2379.742188 0.116277
2378.886719 0.134912
2378.032227 0.114796
2377.176758 0.121947
2376.320313 0.113317
2375.464844 0.134807
2374.609375 0.133347
2373.752930 0.118985
2372.896484 0.117529
2372.040039 0.141867
2371.183594 0.124646
2370.326172 0.126054
2369.469727 0.116005
2368.612305 0.105959
2367.754883 0.138865
2366.897461 0.130250
2366.040039 0.131655
2365.182617 0.117322
2364.324219 0.138756
2363.465820 0.128718
2362.607422 0.115823
2361.749023 0.121519
2360.890625 0.120066
2360.031250 0.140049
2359.172852 0.132878
2358.313477 0.134280
2357.454102 0.137110
2356.594727 0.138511
2355.735352 0.127063
2354.875000 0.128465
2354.015625 0.131294
2353.155273 0.146964
2352.294922 0.132669
2351.434570 0.149758
2350.573242 0.115505
2349.712891 0.135442
2348.851563 0.143968
2347.990234 0.126838
2347.128906 0.148186
2346.267578 0.133911
2345.406250 0.146703
2344.543945 0.155219
2343.681641 0.133832
2342.819336 0.128112
2341.957031 0.143741
2341.094727 0.133753
2340.232422 0.146530
2339.369141 0.137967
2338.505859 0.139362
2337.642578 0.139334
2336.779297 0.153521
2335.916016 0.166282
2335.051758 0.136410
2334.188477 0.136383
2333.324219 0.140617
2332.459961 0.142009
2331.595703 0.126363
2330.730469 0.143372
2329.866211 0.136248
2329.000977 0.141896
2328.135742 0.164567
2327.270508 0.131911
2326.405273 0.138976
2325.540039 0.147455
2324.673828 0.148844
2323.807617 0.145979
2322.941406 0.130364
2322.075195 0.145921
2321.208984 0.157224
2320.341797 0.151528
2319.475586 0.135923
2318.608398 0.142974
2317.741211 0.137285
2316.874023 0.151408
2316.005859 0.132986
2315.138672 0.155591
2314.270508 0.140004
2313.402344 0.138562
2312.534180 0.149843
2311.666016 0.137093
2310.797852 0.154023
2309.928711 0.153992
2309.059570 0.142661
2308.190430 0.159579
2307.321289 0.156724
2306.452148 0.155281
2305.582031 0.132668
2304.712891 0.156630
2303.842773 0.139669
2302.972656 0.156567
2302.102539 0.146664
2301.231445 0.156505
2300.361328 0.135328
2299.490234 0.152214
2298.619141 0.138092
2297.748047 0.154971
2296.876953 0.154940
2296.004883 0.149276
2295.133789 0.143614
2294.261719 0.156254
2293.389648 0.136519
2292.517578 0.125235
2291.645508 0.153347
2290.772461 0.149096
2289.899414 0.151879
2289.027344 0.154660
2288.153320 0.126515
2287.280273 0.148976
2286.407227 0.150352
2285.533203 0.137678
2284.660156 0.153100
2283.786133 0.144644
2282.911133 0.151635
2282.037109 0.144586
2281.163086 0.159995
2280.288086 0.133302
2279.413086 0.152916
2278.538086 0.148677
2277.663086 0.154257
2276.787109 0.131793
2275.912109 0.131766
2275.036133 0.155565
2274.160156 0.130312
2273.284180 0.137290
2272.408203 0.134461
2271.531250 0.155439
2270.655273 0.124606
2269.778320 0.151177
2268.901367 0.142750
2268.024414 0.159512
2267.146484 0.158080
2266.269531 0.159447
2265.391602 0.152423
2264.513672 0.155188
2263.635742 0.155157
2262.757813 0.170498
2261.878906 0.139725
2261.000000 0.155063
2260.122070 0.153635
2259.243164 0.149414
2258.363281 0.143800
2257.484375 0.147958
2256.604492 0.147928
2255.725586 0.159060
2254.845703 0.154843
2253.965820 0.170153
2253.084961 0.147808
2252.205078 0.139413
2251.324219 0.167262
2250.443359 0.128208
2249.562500 0.164408
2248.681641 0.172732
2247.800781 0.161555
2246.918945 0.133674
2246.037109 0.168451
2245.155273 0.165633
2244.273438 0.166991
2243.391602 0.160000
2242.509766 0.159967
2241.626953 0.154372
2240.744141 0.158512
2239.861328 0.154309
2238.978516 0.158447
2238.094727 0.159805
2237.211914 0.168108
2236.328125 0.154183
2235.444336 0.148597
2234.560547 0.151344
2233.675781 0.152701
2232.791992 0.142954
2231.907227 0.159577
2231.022461 0.172030
2230.137695 0.153963
2229.252930 0.170573
2228.368164 0.160833
2227.482422 0.152483
2226.596680 0.149680
2225.710938 0.162120
2224.825195 0.162087
2223.938477 0.166209
2223.052734 0.164790
2222.166016 0.148142
2221.279297 0.181333
2220.392578 0.153617
2219.505859 0.153586
2218.618164 0.172922
2217.731445 0.159055
2216.843750 0.178382
2215.956055 0.153460
2215.068359 0.149282
2214.179688 0.163071
2213.291016 0.180999
2212.403320 0.164385
2211.514648 0.164352
2210.625977 0.151891
2209.736328 0.164284
2208.847656 0.147687
2207.958008 0.193196
2207.068359 0.164183
2206.178711 0.151735
2205.289063 0.158599
2204.398438 0.162703
2203.507813 0.158534
2202.618164 0.150232
2201.727539 0.163981
2200.835938 0.152925
2199.945313 0.144629
2199.053711 0.170765
2198.162109 0.158338
2197.270508 0.152799
2196.378906 0.162402
2195.487305 0.167872
2194.594727 0.151329
2193.703125 0.160926
2192.810547 0.140265
2191.917969 0.152610
2191.024414 0.163575
2190.131836 0.170413
2189.238281 0.164882
2188.344727 0.149737
2187.451172 0.173054
2186.557617 0.170272
2185.664063 0.182593
2184.769531 0.161966
2183.875000 0.171539
2182.980469 0.176992
2182.085938 0.152264
2181.191406 0.167318
2180.295898 0.186480
2179.400391 0.164507
2178.504883 0.163102
2177.609375 0.193216
2176.713867 0.164405
2175.817383 0.163001
2174.921875 0.190357
2174.025391 0.160195
2173.128906 0.147842
2172.231445 0.176552
2171.334961 0.177884
2170.437500 0.151854
2169.540039 0.175074
2168.642578 0.184610
2167.745117 0.150392
2166.847656 0.158562
2165.949219 0.174929
2165.050781 0.173526
2164.152344 0.173490
2163.253906 0.165259
2162.354492 0.170687
2161.456055 0.137886
2160.556641 0.158331
2159.657227 0.173310
2158.757813 0.158265
2157.858398 0.178694
2156.958008 0.166382
2156.057617 0.171802
2155.157227 0.197667
2154.256836 0.151286
2153.356445 0.163518
2152.456055 0.174383
2151.554688 0.167536
2150.653320 0.179757
2149.751953 0.156574
2148.850586 0.175599
2147.948242 0.178284
2147.045898 0.170083
2146.144531 0.168687
2145.242188 0.178172
2144.338867 0.191733
2143.436523 0.174019
2142.533203 0.159031
2141.629883 0.186177
2140.726563 0.177986
2139.823242 0.164364
2138.919922 0.203715
2138.015625 0.177874
2137.111328 0.194127
2136.207031 0.168298
2135.302734 0.198116
2134.398438 0.166871
2133.493164 0.162767
2132.588867 0.199348
2131.683594 0.212864
2130.778320 0.195197
2129.872070 0.191090
2128.966797 0.219505
2128.060547 0.209976
2127.154297 0.207223
2126.248047 0.223429
2125.341797 0.205782
2124.434570 0.236870
2123.527344 0.219228
2122.620117 0.216476
2121.712891 0.202903
2120.805664 0.235318
2119.897461 0.198761
2118.990234 0.235219
2118.082031 0.209490
2117.173828 0.181069
2116.265625 0.208051
2115.356445 0.194500
2114.447266 0.216065
2113.539063 0.207919
2112.628906 0.202476
2111.719727 0.187588
2110.810547 0.168658
2109.900391 0.174019
2108.990234 0.192864
2108.080078 0.219791
2107.169922 0.159079
2106.258789 0.196785
2105.348633 0.185963
2104.437500 0.180534
2103.526367 0.193966
2102.615234 0.176418
2101.703125 0.180419
2100.791992 0.191150
2099.879883 0.183035
2098.967773 0.180305
2098.055664 0.199100
2097.142578 0.188298
2096.230469 0.209773
2095.317383 0.186874
2094.404297 0.176081
2093.490234 0.190826
2092.577148 0.171975
2091.663086 0.205521
2090.750000 0.204134
2089.835938 0.212147
2088.920898 0.169144
2088.006836 0.190582
2087.091797 0.189200
2086.177734 0.173061
2085.262695 0.211921
2084.346680 0.198466
2083.431641 0.194401
2082.515625 0.195700
2081.600586 0.194319
2080.684570 0.178199
2079.767578 0.204952
2078.851563 0.196873
2077.934570 0.203526
2077.017578 0.191434
2076.100586 0.192731
2075.183594 0.199381
2074.266602 0.180608
2073.348633 0.187257
2072.430664 0.173845
2071.512695 0.196536
2070.594727 0.193821
2069.676758 0.197788
2068.757813 0.187057
2067.838867 0.193696
2066.919922 0.189648
2066.000977 0.208301
2065.082031 0.197577
2064.162109 0.189526
2063.242188 0.210836
2062.322266 0.201452
2061.402344 0.190738
2060.481445 0.197365
2059.561523 0.193322
2058.640625 0.194614
2057.719727 0.205233
2056.798828 0.195862
2055.876953 0.210474
2054.956055 0.191783
2054.034180 0.199731
2053.112305 0.170400
2052.189453 0.196983
2051.267578 0.208916
2050.344727 0.203550
2049.421875 0.182224
2048.499023 0.190164
2047.576172 0.191452
2046.652344 0.192740
2045.729492 0.198014
2044.805664 0.211258
2043.881836 0.174018
2042.957031 0.205855
2042.033203 0.229711
2041.108398 0.219041
2040.183594 0.218993
2039.258789 0.193734
2038.333984 0.212265
2037.408203 0.200282
2036.483398 0.218804
2035.557617 0.200195
2034.630859 0.197501
2033.705078 0.212035
2032.778320 0.213314
2031.852539 0.197372
2030.925781 0.206789
2030.818359 0.210573
2029.999023 0.201486
2029.892578 0.209203
2029.071289 0.205428
2028.965820 0.221072
2028.144531 0.190817
2028.040039 0.201171
2027.216797 0.215958
2027.113281 0.203774
2026.289063 0.200025
2026.186523 0.218282
2025.361328 0.201316
2025.260742 0.202363
2024.432617 0.190688
2024.333008 0.227443
2023.503906 0.186683
2023.406250 0.219461
2022.576172 0.210480
2022.479492 0.204874
2021.647461 0.193238
2021.551758 0.235224
2020.717773 0.201145
2020.624023 0.215354
2019.789063 0.210372
2019.696289 0.195494
2018.859375 0.216951
2018.768555 0.204696
2017.929688 0.201042
2017.840820 0.195409
2017.000000 0.202330
2016.913086 0.217807
2016.070313 0.222128
2015.984375 0.219079
2015.139648 0.218124
2015.055664 0.236184
2014.209961 0.222052
2014.126953 0.226898
2013.279297 0.178404
2013.198242 0.203109
2012.348633 0.214048
2012.269531 0.204383
2011.416992 0.224580
2011.340820 0.206975
2010.486328 0.207370
2010.411133 0.208247
2009.554688 0.207335
2009.482422 0.208202
2008.623047 0.225784
2008.552734 0.201569
2007.691406 0.215184
2007.623047 0.237088
2006.759766 0.217787
2006.692383 0.213333
2005.827148 0.209831
2005.762695 0.213286
2004.894531 0.222989
2004.833008 0.210607
2003.961914 0.212397
2003.902344 0.223720
2003.029297 0.217636
2002.971680 0.227618
2002.096680 0.225511
2002.041016 0.222307
2001.163086 0.225472
2001.110352 0.214367
2000.229492 0.201703
2000.178711 0.205116
1999.295898 0.222758
1999.248047 0.236620
1998.362305 0.225354
1998.316406 0.205026
1997.427734 0.195010
1997.384766 0.228632
1996.494141 0.225276
1996.453125 0.207563
1995.559570 0.221285
1995.521484 0.221965
1994.625000 0.210711
1994.589844 0.206159
1993.689453 0.225158
1993.657227 0.221867
1992.754883 0.229068
1992.724609 0.219193
1991.819336 0.218498
1991.792969 0.229643
1990.883789 0.225040
1990.860352 0.221720
1989.948242 0.223685
1989.926758 0.225607
1989.012695 0.226277
1988.994141 0.229491
1988.076172 0.226237
1988.061523 0.228129
1987.139648 0.218307
1987.127930 0.228079
1986.203125 0.223528
1986.194336 0.233270
1985.266602 0.206398
1985.260742 0.229288
1984.330078 0.224764
1984.327148 0.223998
1983.392578 0.218153
1983.392578 0.226568
1982.458984 0.224684
1982.455078 0.213424
1981.524414 0.240409
1981.517578 0.215995
1980.589844 0.215411
1980.580078 0.227726
1979.655273 0.219313
1979.641602 0.221133
1978.720703 0.220587
1978.703125 0.215851
1977.786133 0.227112
1977.765625 0.232806
1976.850586 0.229697
1976.826172 0.241908
1975.915039 0.206034
1975.887695 0.218322
1974.979492 0.220431
1974.948242 0.249643
1974.043945 0.234822
1974.009766 0.228679
1973.108398 0.220352
1973.070313 0.218177
1972.172852 0.222936
1972.130859 0.228578
1971.236328 0.229452
1971.190430 0.246809
1970.299805 0.209747
1970.250000 0.237615
1969.363281 0.229370
1969.310547 0.220594
1968.426758 0.229329
1968.370117 0.255779
1967.490234 0.224048
1967.428711 0.241371
1966.553711 0.222698
1966.488281 0.221751
1965.616211 0.239685
1965.546875 0.228222
1964.678711 0.209523
1964.605469 0.243817
1963.741211 0.226506
1963.664063 0.220299
1962.803711 0.240865
1962.722656 0.225463
1961.866211 0.248675
1961.780273 0.224110
1960.928711 0.238162
1960.837891 0.222757
1959.990234 0.221110
1959.895508 0.227917
1959.051758 0.240692
1958.953125 0.233074
1958.113281 0.255036
1958.010742 0.220004
1957.174805 0.222299
1957.067383 0.221256
1956.236328 0.243177
1956.124023 0.236821
1955.296875 0.245748
1955.180664 0.265389
1954.357422 0.245704
1954.237305 0.227611
1953.418945 0.250886
1953.292969 0.250966
1952.479492 0.244309
1952.349609 0.239209
1951.539063 0.241652
1951.405273 0.243055
1950.599609 0.225936
1950.460938 0.232605
1949.660156 0.227201
1949.515625 0.224757
1948.719727 0.240215
1948.571289 0.246788
1947.779297 0.267583
1947.625977 0.266211
1946.838867 0.228383
1946.680664 0.257064
1945.898438 0.260962
1945.735352 0.238834
1944.957031 0.258305
1944.789063 0.227100
1944.016602 0.251737
1943.842773 0.240024
1943.075195 0.256907
1942.896484 0.237375
1942.133789 0.265988
1941.950195 0.282711
1941.192383 0.235956
1941.003906 0.246344
1940.250977 0.221576
1940.056641 0.242400
1939.308594 0.242386
1939.110352 0.247529
1938.366211 0.250159
1938.163086 0.246178
1937.424805 0.256627
1937.215820 0.250008
1936.482422 0.256580
1936.267578 0.249952
1935.539063 0.264346
1935.319336 0.260254
1934.596680 0.246071
1934.372070 0.244661
1933.654297 0.243422
1933.422852 0.251077
1932.710938 0.262900
1932.474609 0.261371
1931.767578 0.257647
1931.526367 0.222503
1930.824219 0.241987
1930.577148 0.254786
1929.880859 0.252349
1929.627930 0.241798
1928.936523 0.266609
1928.678711 0.243036
1927.993164 0.273061
1927.728516 0.275292
1927.048828 0.266511
1926.779297 0.245510
1926.104492 0.262562
1925.829102 0.260957
1925.160156 0.265113
1924.878906 0.268647
1924.215820 0.246874
1923.928711 0.244052
1923.270508 0.237735
1922.977539 0.267234
1922.326172 0.261070
1922.026367 0.285243
1921.380859 0.254529
1921.075195 0.270984
1920.435547 0.270063
1920.124023 0.250281
1919.490234 0.279100
1919.172852 0.266991
1918.543945 0.254388
1918.220703 0.251456
1917.598633 0.220602
1917.268555 0.230771
1916.652344 0.269863
1916.316406 0.260364
1915.706055 0.259436
1915.364258 0.271902
1914.759766 0.259388
1914.411133 0.256380
1913.813477 0.246372
1913.458984 0.261474
1912.866211 0.247623
1912.505859 0.257551
1911.919922 0.243689
1911.552734 0.270367
1910.972656 0.244939
1910.598633 0.296048
1910.025391 0.273400
1909.645508 0.265096
1909.078125 0.243553
1908.691406 0.257316
1908.129883 0.257755
1907.737305 0.246966
1907.182617 0.259002
1906.782227 0.262342
1906.234375 0.242122
1905.828125 0.228854
1905.286133 0.266673
1904.873047 0.267363
1904.337891 0.243326
1903.917969 0.266017
1903.389648 0.261397
1902.962891 0.262101
1902.440430 0.287225
1902.006836 0.280024
1901.492188 0.256126
1901.051758 0.254276
1900.542969 0.236678
1900.095703 0.268340
1899.593750 0.266375
1899.139648 0.258010
1898.644531 0.265032
1898.183594 0.263084
1897.695313 0.267567
1897.226563 0.278420
1896.745117 0.266225
1896.269531 0.248852
1895.794922 0.262299
1895.312500 0.278291
1894.844727 0.268709
1894.355469 0.280791
1893.894531 0.251867
1893.398438 0.282009
1892.944336 0.246655
1892.440430 0.272973
1891.994141 0.264684
1891.482422 0.252409
1891.042969 0.273671
1890.524414 0.260037
1890.091797 0.269747
1889.566406 0.289432
1889.140625 0.291634
1888.607422 0.270160
1888.189453 0.242552
1887.648438 0.280338
1887.238281 0.276045
1886.689453 0.257237
1886.286133 0.259227
1885.730469 0.264854
1885.334961 0.308177
1884.770508 0.260955
1884.382813 0.268153
1883.811523 0.260895
1883.430664 0.262947
1882.851563 0.263392
1882.477539 0.261609
1881.891602 0.272279
1881.525391 0.282175
1880.930664 0.273494
1880.572266 0.266663
1879.970703 0.269597
1879.619141 0.262748
1879.009766 0.270812
1878.666016 0.265274
1878.048828 0.272026
1877.712891 0.251061
1877.086914 0.260471
1876.759766 0.252301
1876.125977 0.279559
1875.805664 0.258688
1875.164063 0.261626
1874.852539 0.266360
1874.202148 0.259014
1873.898438 0.245725
1873.240234 0.251299
1872.943359 0.276549
1872.277344 0.239763
1871.989258 0.271352
1871.315430 0.238432
1871.035156 0.259728
1870.352539 0.280443
1870.080078 0.263536
1869.389648 0.280377
1869.125000 0.271197
1868.425781 0.282860
1868.169922 0.268576
1867.462891 0.278972
1867.214844 0.271094
1866.499023 0.289095
1866.258789 0.258197
1865.535156 0.254650
1865.303711 0.267138
1864.570313 0.320784
1864.347656 0.281212
1863.606445 0.267257
1863.391602 0.274739
1862.641602 0.267195
1862.435547 0.247731
1861.676758 0.290029
1861.479492 0.277200
1860.711914 0.279714
1860.522461 0.272156
1859.746094 0.269397
1859.565430 0.273364
1858.781250 0.280889
1858.608398 0.283469
1857.815430 0.293659
1857.651367 0.289757
1856.849609 0.288474
1856.694336 0.275713
1855.882813 0.266627
1855.736328 0.266756
1854.916992 0.299898
1854.779297 0.299712
1853.950195 0.274213
1853.821289 0.261552
1852.983398 0.234446
1852.863281 0.274184
1852.015625 0.271546
1851.905273 0.272850
1851.048828 0.288142
1850.946289 0.310849
1850.081055 0.284246
1849.988281 0.291748
1849.113281 0.305954
1849.029297 0.280266
1848.145508 0.281577
1848.070313 0.271325
1847.176758 0.300717
1847.111328 0.285204
1846.208008 0.290424
1846.151367 0.273731
1845.239258 0.268623
1845.192383 0.272399
1844.270508 0.290312
1844.232422 0.276135
1843.301758 0.269798
1843.272461 0.250742
1842.332031 0.269746
1842.312500 0.284866
1841.362305 0.276084
1841.352539 0.283533
1840.392578 0.268364
1840.391602 0.283466
1839.430664 0.279811
1839.422852 0.280868
1838.470703 0.301473
1838.452148 0.301039
1837.508789 0.284811
1837.481445 0.306026
1836.547852 0.297525
1836.510742 0.289518
1835.586914 0.274488
1835.540039 0.293241
1834.625000 0.270605
1834.568359 0.284325
1833.663086 0.279486
1833.597656 0.266570
1832.701172 0.285812
1832.625000 0.309451
1831.739258 0.293410
1831.653320 0.298012
1830.777344 0.302282
1830.681641 0.305516
1829.814453 0.318800
1829.708984 0.300394
1828.851563 0.286865
1828.736328 0.288966
1827.888672 0.297007
1827.763672 0.275020
1826.925781 0.272734
1826.790039 0.293873
1825.962891 0.291794
1825.817383 0.292541
1824.999023 0.296833
1824.843750 0.296253
1824.035156 0.287860
1823.869141 0.277277
1823.071289 0.304359
1822.895508 0.298631
1822.107422 0.272469
1821.920898 0.297300
1821.143555 0.308059
1820.947266 0.292191
1820.178711 0.272363
1819.971680 0.328636
1819.214844 0.307939
1818.997070 0.292050
1818.250000 0.295156
1818.021484 0.307083
1817.285156 0.268387
1817.046875 0.285619
1816.319336 0.287411
1816.070313 0.299387
1815.354492 0.316599
1815.094727 0.285481
1814.388672 0.294926
1814.119141 0.304272
1813.422852 0.274532
1813.142578 0.294143
1812.457031 0.277020
1812.166016 0.280248
1811.491211 0.303646
1811.188477 0.288975
1810.525391 0.298506
1810.211914 0.291417
1809.558594 0.267968
1809.234375 0.307672
1808.591797 0.297119
1808.256836 0.298810
1807.625000 0.294522
1807.279297 0.286185
1806.658203 0.303349
1806.300781 0.286116
1805.690430 0.280447
1805.322266 0.298592
1804.723633 0.262630
1804.343750 0.280960
1803.755859 0.303170
1803.365234 0.312241
1802.788086 0.285355
1802.386719 0.297121
1801.820313 0.301783
1801.407227 0.322117
1800.851563 0.301724
1800.427734 0.283193
1799.883789 0.299129
1799.448242 0.299410
1798.915039 0.277527
1798.467773 0.298085
1797.946289 0.316749
1797.488281 0.304273
1796.977539 0.316687
1796.507813 0.314214
1796.007813 0.302693
1795.527344 0.304125
1795.039063 0.302633
1794.545898 0.294041
1794.069336 0.327894
1793.564453 0.308980
1793.099609 0.325298
1792.583008 0.307654
1792.129883 0.299923
1791.601563 0.306329
1791.160156 0.308721
1790.620117 0.292503
1790.189453 0.333960
1789.637695 0.297431
1789.218750 0.319982
1788.655273 0.308602
1788.248047 0.306009
1787.672852 0.322267
1787.277344 0.323648
1786.690430 0.313446
1786.306641 0.280608
1785.707031 0.314618
1785.334961 0.324784
1784.723633 0.318285
1784.364258 0.329773
1783.740234 0.309472
1783.392578 0.325918
1782.756836 0.311891
1782.420898 0.305646
1781.772461 0.305578
1781.448242 0.319475
1780.788086 0.304256
1780.476563 0.332037
1779.803711 0.287974
1779.503906 0.314300
1778.819336 0.332772
1778.531250 0.326857
1777.833984 0.333936
1777.558594 0.333101
1776.848633 0.308939
1776.585938 0.316635
1775.863281 0.305126
1775.612305 0.305221
1774.877930 0.319992
1774.638672 0.308944
1773.891602 0.295017
1773.666016 0.321490
1772.905273 0.338501
1772.691406 0.360501
1771.918945 0.318510
1771.717773 0.354128
1770.931641 0.333898
1770.744141 0.337089
1769.945313 0.321234
1769.769531 0.355659
1768.958008 0.372809
1768.794922 0.325733
1767.970703 0.319846
1767.820313 0.328138
1766.982422 0.367624
1766.845703 0.326814
1765.995117 0.342376
1765.870117 0.329217
1765.006836 0.362443
1764.894531 0.353976
1764.018555 0.379986
1763.919922 0.371272
1763.029297 0.353493
1762.944336 0.351317
1762.041016 0.372288
1761.967773 0.336336
1761.051758 0.323172
1760.992188 0.326326
1760.062500 0.350767
1760.015625 0.343611
1759.072266 0.367037
1759.039063 0.322443
1758.083008 0.326748
1758.062500 0.348399
1757.092773 0.336735
1757.085938 0.355749
1756.108398 0.359279
1756.101563 0.351942
1755.131836 0.360464
1755.111328 0.344421
1754.154297 0.371693
1754.120117 0.371584
1753.176758 0.365341
1753.128906 0.349201
1752.198242 0.332632
1751.220703 0.328800
1750.242188 0.345046
1749.263672 0.368811
1748.285156 0.351178
1747.306641 0.323521
1746.327148 0.347276
1745.348633 0.322137
1744.369141 0.349643
1743.389648 0.387161
1742.409180 0.323196
1741.429688 0.320626
1740.449219 0.353118
1739.468750 0.336772
1738.488281 0.355479
1737.507813 0.360413
1736.526367 0.345327
1735.544922 0.371526
1734.563477 0.375204
1733.582031 0.371376
1732.600586 0.377552
1731.618164 0.371227
1730.636719 0.356156
1729.654297 0.383571
1728.671875 0.383493
1727.688477 0.383416
1726.706055 0.400819
1725.722656 0.396993
1724.739258 0.373198
1723.755859 0.389345
1722.771484 0.395504
1721.788086 0.366734
1720.803711 0.386614
1719.819336 0.412720
1718.834961 0.395184
1717.850586 0.370176
1716.865234 0.400008
1715.879883 0.389959
1714.894531 0.397354
1713.909180 0.389801
1712.923828 0.404663
1711.937500 0.400846
1710.951172 0.399520
1709.964844 0.382018
1708.978516 0.394381
1707.991211 0.410471
1707.004883 0.419093
1706.017578 0.410304
1705.030273 0.399033
1704.042969 0.454879
1703.054688 0.417509
1702.066406 0.449724
1701.078125 0.438454
1700.089844 0.437122
1699.101563 0.432067
1698.113281 0.430737
1697.124023 0.446783
1696.134766 0.455378
1695.145508 0.413106
1694.155273 0.437827
1693.166016 0.440218
1692.175781 0.430209
1691.185547 0.412768
1690.195313 0.417640
1689.205078 0.431184
1688.213867 0.424902
1687.222656 0.442154
1686.231445 0.454446
1685.240234 0.470448
1684.249023 0.446834
1683.256836 0.441792
1682.264648 0.431803
1681.272461 0.453981
1680.280273 0.426679
1679.287109 0.426591
1678.294922 0.432685
1677.301758 0.437540
1676.308594 0.433743
1675.315430 0.458363
1674.321289 0.433564
1673.327148 0.421125
1672.333008 0.427212
1671.338867 0.445641
1670.344727 0.443081
1669.349609 0.441756
1668.355469 0.444132
1667.360352 0.468710
1666.365234 0.430384
1665.369141 0.429062
1664.374023 0.456093
1663.377930 0.457231
1662.381836 0.463298
1661.384766 0.428708
1660.388672 0.436010
1659.391602 0.459317
1658.395508 0.446910
1657.397461 0.439432
1656.400391 0.443034
1655.403320 0.467550
1654.405273 0.447771
1653.407227 0.458747
1652.409180 0.464800
1651.411133 0.467163
1650.412109 0.473212
1649.413086 0.459596
1648.414063 0.471787
1647.415039 0.461862
1646.416016 0.483872
1645.416016 0.497278
1644.416016 0.483672
1643.416016 0.543711
1642.416016 0.506786
1641.415039 0.466195
1640.415039 0.502895
1639.414063 0.544486
1638.413086 0.487974
1637.411133 0.523421
1636.410156 0.525763
1635.408203 0.542808
1634.406250 0.514519
1633.404297 0.515637
1632.402344 0.520428
1631.399414 0.538683
1630.396484 0.525107
1629.393555 0.543354
1628.390625 0.537123
1627.387695 0.554137
1626.383789 0.534454
1625.379883 0.577138
1624.375977 0.561125
1623.372070 0.548786
1622.367188 0.565779
1621.362305 0.547335
1620.357422 0.582644
1619.352539 0.561761
1618.347656 0.561644
1617.341797 0.570072
1616.335938 0.561409
1615.330078 0.557631
1614.324219 0.578254
1613.318359 0.595208
1612.311523 0.586548
1611.304688 0.603494
1610.297852 0.592397
1609.291016 0.598366
1608.283203 0.606770
1607.275391 0.624915
1606.267578 0.617477
1605.259766 0.684318
1604.251953 0.650087
1603.243164 0.630477
1602.234375 0.668068
1601.225586 0.661844
1600.216797 0.631296
1599.207031 0.679808
1598.198242 0.610362
1597.188477 0.616311
1596.178711 0.613751
1595.167969 0.645215
1594.158203 0.647509
1593.147461 0.624295
1592.136719 0.629021
1591.125977 0.638602
1590.114258 0.623901
1589.103516 0.595858
1588.091797 0.632132
1587.080078 0.613803
1586.067383 0.589418
1585.055664 0.629307
1584.042969 0.635236
1583.030273 0.599953
1582.017578 0.616792
1581.003906 0.646950
1579.991211 0.616532
1578.977539 0.620034
1577.963867 0.636854
1576.949219 0.620983
1575.935547 0.637795
1574.920898 0.624351
1573.906250 0.616960
1572.891602 0.613202
1571.876953 0.644512
1570.861328 0.638330
1569.845703 0.664787
1568.830078 0.715401
1567.814453 0.660881
1566.797852 0.688524
1565.782227 0.725816
1564.765625 0.743774
1563.749023 0.785867
1562.731445 0.820701
1561.714844 0.839834
1560.697266 0.889118
1559.679688 0.847920
1558.662109 0.832064
1557.643555 0.864440
1556.625000 0.852202
1555.607422 0.849611
1554.587891 0.825333
1553.569336 0.844432
1552.549805 0.800896
1551.531250 0.812767
1550.511719 0.857136
1549.491211 0.854547
1548.471680 0.878431
1547.451172 0.821700
1546.430664 0.862421
1545.410156 0.923568
1544.389648 0.955834
1543.368164 0.959237
1542.346680 1.032342
1541.325195 1.089796
1540.303711 1.093167
1539.282227 1.161393
1538.259766 1.200771
1537.237305 1.270145
1536.214844 1.267473
1535.191406 1.345203
1534.168945 1.348515
1533.145508 1.361422
1532.122070 1.357533
1531.098633 1.381223
1530.074219 1.305408
1529.050781 1.363854
1528.026367 1.309643
1527.000977 1.297384
1525.976563 1.255187
1524.951172 1.209416
1523.926758 1.204368
1522.901367 1.113144
1521.875000 1.088972
1520.849609 1.040882
1519.823242 1.021521
1518.796875 0.994992
1517.770508 0.940975
1516.743164 0.940773
1515.716797 0.901132
1514.689453 0.829246
1513.662109 0.789646
1512.634766 0.773950
1511.606445 0.743931
1510.578125 0.768842
1509.549805 0.728095
1508.521484 0.714811
1507.493164 0.683638
1506.463867 0.700190
1505.434570 0.689307
1504.405273 0.665312
1503.375977 0.634176
1502.345703 0.606628
1501.315430 0.666075
1500.285156 0.632575
1499.254883 0.656260
1498.223633 0.631112
1497.193359 0.642881
1496.162109 0.647504
1495.130859 0.683065
1494.098633 0.660312
1493.067383 0.672065
1492.035156 0.644567
1491.002930 0.709822
1489.969727 0.694216
1488.937500 0.707139
1487.904297 0.745009
1486.871094 0.711586
1485.837891 0.730435
1484.803711 0.685155
1483.770508 0.787105
1482.736328 0.773878
1481.702148 0.774898
1480.666992 0.804391
1479.632813 0.803031
1478.597656 0.800485
1477.562500 0.769485
1476.527344 0.806066
1475.491211 0.777448
1474.455078 0.799792
1473.418945 0.767634
1472.382813 0.778127
1471.346680 0.723489
1470.309570 0.737539
1469.272461 0.720809
1468.235352 0.743136
1467.198242 0.725228
1466.160156 0.721522
1465.122070 0.732009
1464.083984 0.673917
1463.045898 0.687955
1462.006836 0.679533
1460.968750 0.673478
1459.929688 0.735939
1458.889648 0.735779
1457.850586 0.688389
1456.810547 0.722474
1455.771484 0.727037
1454.730469 0.745759
1453.690430 0.753855
1452.649414 0.741896
1451.609375 0.761781
1450.568359 0.747468
1449.526367 0.761449
1448.485352 0.722394
1447.443359 0.699851
1446.401367 0.715012
1445.359375 0.690124
1444.316406 0.677022
1443.274414 0.692177
1442.231445 0.641419
1441.188477 0.681285
1440.144531 0.692900
1439.101563 0.657465
1438.057617 0.686718
1437.013672 0.675987
1435.968750 0.700522
1434.924805 0.727397
1433.879883 0.717839
1432.834961 0.731777
1431.790039 0.764498
1430.744141 0.773724
1429.698242 0.801726
1428.653320 0.844973
1427.606445 0.796682
1426.560547 0.819968
1425.513672 0.840899
1424.466797 0.832507
1423.419922 0.846391
1422.373047 0.833313
1421.325195 0.837817
1420.277344 0.817718
1419.229492 0.815196
1418.181641 0.822043
1417.132813 0.830057
1416.084961 0.804124
1415.036133 0.785224
1413.986328 0.747612
1412.937500 0.786048
1411.887695 0.761316
1410.837891 0.743611
1409.788086 0.763319
1408.738281 0.747958
1407.687500 0.747793
1406.636719 0.727770
1405.585938 0.718266
1404.534180 0.718108
1403.483398 0.724954
1402.431641 0.703785
1401.379883 0.726967
1400.327148 0.725640
1399.275391 0.721981
1398.222656 0.739313
1397.169922 0.725160
1396.117188 0.723834
1395.063477 0.744650
1394.009766 0.715358
1392.956055 0.739661
1391.902344 0.752308
1390.848633 0.720705
1389.793945 0.740334
1388.739258 0.732024
1387.684570 0.753969
1386.628906 0.756128
1385.574219 0.739679
1384.518555 0.741840
1383.462891 0.747488
1382.406250 0.733375
1381.350586 0.783178
1380.293945 0.798107
1379.237305 0.797929
1378.179688 0.815170
1377.123047 0.824277
1376.065430 0.851951
1375.007813 0.877291
1373.949219 0.870135
1372.891602 0.862982
1371.833008 0.870907
1370.774414 0.918249
1369.715820 0.937750
1368.656250 1.002439
1367.596680 1.028864
1366.537109 0.993884
1365.477539 1.092102
1364.417969 1.075649
1363.357422 1.113610
1362.296875 1.165442
1361.236328 1.147825
1360.174805 1.203097
1359.113281 1.198202
1358.052734 1.160932
1356.990234 1.228880
1355.928711 1.159258
1354.866211 1.109311
1353.803711 1.126392
1352.741211 1.068389
1351.678711 1.042745
1350.615234 1.049439
1349.551758 1.014577
1348.488281 1.042045
1347.424805 0.971434
1346.360352 0.982751
1345.295898 0.935250
1344.231445 0.933887
1343.166992 0.950968
1342.101563 0.902352
1341.036133 0.922889
1339.970703 0.876605
1338.905273 0.864892
1337.838867 0.885423
1336.772461 0.871410
1335.706055 0.881572
1334.639648 0.899784
1333.572266 0.917987
1332.504883 0.905129
1331.437500 0.870430
1330.370117 0.903572
1329.302734 0.907966
1328.234375 0.891674
1327.166016 0.885729
1326.096680 0.887827
1325.028320 0.884182
1323.958984 0.885130
1322.889648 0.911329
1321.820313 0.867518
1320.750000 0.838641
1319.679688 0.832716
1318.609375 0.864637
1317.539063 0.793360
1316.468750 0.813812
1315.397461 0.802169
1314.326172 0.779073
1313.254883 0.814405
1312.182617 0.823382
1311.142578 0.812891
1311.110352 0.813705
1310.069336 0.794393
1310.038086 0.813705
1308.997070 0.763314
1308.965820 0.794107
1307.923828 0.781447
1307.892578 0.777949
1306.851563 0.800716
1306.820313 0.776666
1305.778320 0.770800
1305.747070 0.798256
1304.704102 0.796922
1304.672852 0.779818
1303.630859 0.785310
1303.599609 0.771675
1302.557617 0.803417
1302.525391 0.740675
1301.483398 0.765530
1301.451172 0.788540
1300.409180 0.804195
1300.376953 0.781543
1299.334961 0.749193
1299.301758 0.768836
1298.259766 0.776426
1298.227539 0.754991
1297.185547 0.767417
1297.152344 0.775107
1296.110352 0.744443
1296.076172 0.761236
1295.035156 0.729468
1295.000977 0.757639
1293.959961 0.770425
1293.924805 0.746059
1292.883789 0.734910
1292.848633 0.713955
1291.808594 0.689139
1291.772461 0.720634
1290.732422 0.710688
1290.695313 0.701090
1289.656250 0.718543
1289.618164 0.722584
1288.580078 0.688764
1288.541016 0.732675
1287.502930 0.697760
1287.463867 0.721115
1286.426758 0.703333
1286.386719 0.678810
1285.349609 0.707764
1285.308594 0.672961
1284.272461 0.721309
1284.230469 0.716068
1283.195313 0.675605
1283.152344 0.702246
1282.118164 0.694847
1282.073242 0.658845
1281.040039 0.668526
1280.994141 0.684860
1279.961914 0.670681
1279.915039 0.655132
1278.883789 0.681943
1278.835938 0.626554
1277.805664 0.671574
1277.755859 0.625273
1276.727539 0.703316
1276.676758 0.635359
1275.648438 0.656536
1275.596680 0.648850
1274.569336 0.656415
1274.515625 0.638476
1273.490234 0.665394
1273.435547 0.674676
1272.411133 0.657312
1272.354492 0.649539
1271.332031 0.645821
1271.273438 0.648255
1270.251953 0.617282
1270.191406 0.629945
1269.171875 0.650129
1269.110352 0.616183
1268.091797 0.582963
1268.028320 0.637597
1267.011719 0.627166
1266.946289 0.634048
1265.931641 0.635002
1265.864258 0.639572
1264.850586 0.623528
1264.781250 0.581605
1263.769531 0.605244
1263.698242 0.621143
1262.688477 0.606267
1262.615234 0.622133
1261.607422 0.617506
1261.532227 0.653712
1260.526367 0.628741
1260.448242 0.607121
1259.444336 0.629759
1259.364258 0.648881
1258.362305 0.630777
1258.280273 0.645335
1257.280273 0.659016
1257.196289 0.670088
1256.198242 0.665698
1256.111328 0.654091
1255.115234 0.662173
1255.026367 0.659596
1254.033203 0.693792
1253.941406 0.693378
1252.950195 0.729933
1252.856445 0.695479
1251.867188 0.700333
1251.770508 0.710017
1250.783203 0.746656
1250.684570 0.708722
1249.700195 0.752180
1249.598633 0.716469
1248.616211 0.765631
1248.511719 0.756976
1247.532227 0.788135
1247.425781 0.752283
1246.448242 0.756287
1246.338867 0.752109
1245.364258 0.750486
1245.250977 0.750805
1244.279297 0.786561
1244.164063 0.747245
1243.195313 0.758126
1243.076172 0.758357
1242.110352 0.765903
1241.988281 0.751412
1241.024414 0.797430
1240.900391 0.769285
1239.939453 0.804065
1239.812500 0.738658
1238.853516 0.766602
1238.723633 0.782458
1237.768555 0.815068
1237.634766 0.785658
1236.682617 0.796830
1236.544922 0.796744
1235.595703 0.846402
1235.456055 0.834866
1234.509766 0.822516
1234.366211 0.850442
1233.422852 0.841564
1233.276367 0.842361
1232.336914 0.865123
1232.186523 0.851172
1231.250000 0.852538
1231.095703 0.868984
1230.162109 0.896407
1230.004883 0.877784
1229.075195 0.936873
1228.914063 0.882080
1227.987305 0.896068
1227.823242 0.870626
1226.899414 0.854150
1226.731445 0.883918
1225.811523 0.890088
1225.639648 0.863474
1224.723633 0.862849
1224.547852 0.868893
1223.634766 0.879601
1223.456055 0.865319
1222.546875 0.887326
1222.363281 0.843770
1221.458008 0.829667
1221.270508 0.858175
1220.368164 0.823874
1220.177734 0.813054
1219.279297 0.820336
1219.084961 0.792655
1218.189453 0.804408
1217.991211 0.780122
1217.100586 0.826782
1216.897461 0.760862
1216.010742 0.757927
1215.803711 0.767415
1214.919922 0.749900
1214.708984 0.735828
1213.830078 0.731745
1213.614258 0.715470
1212.739258 0.704592
1212.519531 0.682789
1211.648438 0.701081
1211.424805 0.685991
1210.557617 0.672819
1210.329102 0.664538
1209.466797 0.669316
1209.234375 0.654299
1208.375977 0.674811
1208.138672 0.679908
1207.284180 0.674682
1207.041992 0.656231
1206.192383 0.673428
1205.946289 0.625848
1205.100586 0.644074
1204.849609 0.623462
1204.007813 0.650693
1203.752930 0.616601
1202.916016 0.657309
1202.655273 0.601912
1201.823242 0.612247
1201.558594 0.606244
1200.730469 0.633470
1200.460938 0.646359
1199.637695 0.627733
1199.362305 0.646207
1198.543945 0.613017
1198.264648 0.658349
1197.451172 0.637594
1197.166016 0.622435
1196.357422 0.645327
1196.067383 0.649101
1195.263672 0.632859
1194.968750 0.629960
1194.168945 0.620396
1193.870117 0.647678
1193.075195 0.622520
1192.770508 0.618498
1191.980469 0.668379
1191.670898 0.645139
1190.885742 0.632370
1190.570313 0.602583
1189.791016 0.643458
1189.470703 0.593515
1188.696289 0.620917
1188.370117 0.592259
1187.600586 0.611832
1187.269531 0.609961
1186.504883 0.620676
1186.167969 0.603127
1185.409180 0.592552
1185.067383 0.580693
1184.313477 0.581238
1183.965820 0.591698
1183.216797 0.583365
1182.864258 0.581531
1182.121094 0.579893
1181.761719 0.562459
1181.024414 0.560752
1180.659180 0.544509
1179.927734 0.557286
1179.556641 0.564419
1178.830078 0.561653
1178.454102 0.563171
1177.733398 0.545883
1177.351563 0.518529
1176.635742 0.570381
1176.248047 0.537317
1175.538086 0.530015
1175.144531 0.576116
1174.440430 0.539973
1174.040039 0.563748
1173.341797 0.574518
1172.936523 0.536933
1172.243164 0.549820
1171.832031 0.557922
1171.145508 0.550830
1170.727539 0.553344
1170.045898 0.577532
1169.622070 0.537660
1168.947266 0.552848
1168.517578 0.526426
1167.848633 0.590705
1167.412109 0.538514
1166.749023 0.538117
1166.306641 0.529505
1165.649414 0.534663
1165.200195 0.524939
1164.549805 0.550182
1164.093750 0.562538
1163.449219 0.563463
1162.987305 0.556857
1162.348633 0.583432
1161.880859 0.575577
1161.249023 0.586663
1160.773438 0.576548
1160.147461 0.564246
1159.666016 0.567542
1159.046875 0.580858
1158.558594 0.599544
1157.946289 0.587432
1157.451172 0.593861
1156.844727 0.580629
1156.342773 0.584857
1155.743164 0.622856
1155.234375 0.580287
1154.641602 0.582628
1154.125977 0.612255
1153.539063 0.576944
1153.017578 0.618749
1152.436523 0.610237
1151.908203 0.626346
1151.334961 0.624590
1150.798828 0.625089
1150.231445 0.608883
1149.689453 0.640424
1149.128906 0.633247
1148.579102 0.631424
1148.026367 0.645361
1147.468750 0.622427
1146.922852 0.604072
1146.358398 0.607908
1145.819336 0.643993
1145.248047 0.646438
1144.715820 0.643865
1144.136719 0.617558
1143.611328 0.620389
1143.025391 0.607469
1142.506836 0.621378
1141.914063 0.586342
1141.403320 0.595693
1140.801758 0.565225
1140.297852 0.608908
1139.689453 0.604821
1139.193359 0.609898
1138.577148 0.578193
1138.088867 0.604223
1137.464844 0.580259
1136.983398 0.606324
1136.351563 0.599971
1135.877930 0.619527
1135.239258 0.606441
1134.771484 0.566121
1134.125000 0.585350
1133.666016 0.597083
1133.011719 0.633700
1132.559570 0.610279
1131.897461 0.613713
1131.453125 0.662298
1130.783203 0.633392
1130.346680 0.611145
1129.668945 0.680594
1129.240234 0.645400
1128.553711 0.668317
1128.132813 0.636401
1127.439453 0.680263
1127.025391 0.680614
1126.324219 0.718614
1125.917969 0.710401
1125.208008 0.731642
1124.810547 0.754580
1124.092773 0.745763
1123.702148 0.722302
1122.976563 0.817061
1122.594727 0.774215
1121.859375 0.838850
1121.486328 0.831644
1120.743164 0.855133
1120.377930 0.840334
1119.625977 0.874704
1119.268555 0.875587
1118.508789 0.851420
1118.159180 0.893119
1117.391602 0.917112
1117.050781 0.937199
1116.273438 0.907006
1115.940430 0.929267
1115.155273 0.915566
1114.831055 0.923550
1114.037109 0.862661
1113.721680 0.912306
1112.918945 0.861353
1112.611328 0.876743
1111.799805 0.805195
1111.500977 0.872145
1110.680664 0.802804
1110.389648 0.807870
1109.561523 0.757653
1109.279297 0.749146
1108.441406 0.708139
1108.167969 0.732424
1107.321289 0.692622
1107.056641 0.711291
1106.201172 0.681496
1105.945313 0.681332
1105.081055 0.682424
1104.833984 0.648073
1103.959961 0.624215
1103.721680 0.624762
1102.838867 0.605449
1102.609375 0.616911
1101.717773 0.586692
1101.497070 0.595822
1100.595703 0.601868
1100.384766 0.616661
1099.473633 0.624695
1099.271484 0.590066
1098.351563 0.604853
1098.158203 0.603179
1097.229492 0.599237
1097.044922 0.574392
1096.106445 0.585970
1095.931641 0.605139
1094.983398 0.610964
1094.818359 0.560935
1093.860352 0.583496
1093.704102 0.563025
1092.737305 0.540747
1092.589844 0.589349
1091.613281 0.599590
1091.475586 0.610155
1090.489258 0.554674
1090.360352 0.570390
1089.364258 0.566545
1089.246094 0.594494
1088.240234 0.540212
1088.130859 0.540439
1087.115234 0.543352
1087.015625 0.550234
1085.989258 0.549762
1085.900391 0.563324
1084.864258 0.551807
1084.784180 0.540109
1083.738281 0.537496
1083.667969 0.508105
1082.612305 0.536273
1082.551758 0.514599
1081.486328 0.526332
1081.435547 0.544177
1080.359375 0.521844
1080.318359 0.530876
1079.232422 0.550032
1079.202148 0.521976
1078.105469 0.523762
1078.084961 0.526265
1076.977539 0.527986
1076.966797 0.528354
1075.849609 0.543092
1075.849609 0.511773
1074.731445 0.536428
1074.721680 0.547902
1073.613281 0.561314
1073.593750 0.519248
1072.495117 0.543773
1072.464844 0.543288
1071.376953 0.557442
1071.335938 0.533852
1070.257813 0.537580
1070.207031 0.552197
1069.138672 0.556116
1069.077148 0.534672
1068.019531 0.541746
1067.948242 0.537797
1066.900391 0.501067
1066.817383 0.542008
1065.781250 0.525081
1065.687500 0.557075
1064.661133 0.527165
1064.556641 0.499396
1063.541016 0.507333
1063.425781 0.530747
1062.419922 0.526948
1062.294922 0.513252
1061.299805 0.469884
1061.163086 0.493596
1060.178711 0.469788
1060.032227 0.456598
1059.057617 0.467501
1058.899414 0.464073
1057.936523 0.459743
1057.767578 0.474796
1056.815430 0.483725
1056.634766 0.467091
1055.693359 0.457365
1055.501953 0.463723
1054.571289 0.470398
1054.369141 0.438693
1053.449219 0.445146
1053.235352 0.456992
1052.327148 0.457082
1052.101563 0.466620
1051.204102 0.424190
1050.967773 0.413466
1050.081055 0.451428
1049.833984 0.438250
1048.958008 0.458985
1048.699219 0.448958
1047.834961 0.449057
1047.564453 0.439110
1046.710938 0.439133
1046.428711 0.466031
1045.586914 0.454332
1045.293945 0.435645
1044.462891 0.422572
1044.158203 0.419324
1043.338867 0.446502
1043.021484 0.439746
1042.213867 0.433312
1041.885742 0.410470
1041.089844 0.453956
1040.749023 0.423325
1039.964844 0.439679
1039.612305 0.429695
1038.838867 0.455949
1038.474609 0.425268
1037.713867 0.418776
1037.337891 0.444584
1036.587891 0.462302
1036.200195 0.440156
1035.461914 0.451305
1035.061523 0.441122
1034.335938 0.456661
1033.923828 0.467967
1033.209961 0.454387
1032.785156 0.464613
1032.083008 0.443398
1031.646484 0.456951
1030.956055 0.448752
1030.506836 0.451447
1029.829102 0.439947
1029.367188 0.441638
1028.701172 0.451832
1028.227539 0.431833
1027.574219 0.451738
1027.087891 0.420956
1026.446289 0.425524
1025.947266 0.433765
1025.318359 0.435229
1024.806641 0.445490
1024.189453 0.436226
1023.666016 0.445376
1023.061523 0.455712
1022.524414 0.447413
1021.932617 0.421908
1021.382813 0.427944
1020.803711 0.458783
1020.241211 0.453634
1019.674805 0.446731
1019.098633 0.456741
1018.544922 0.464026
1017.957031 0.475963
1017.415039 0.457410
1016.813477 0.477989
1016.285156 0.457314
1015.670898 0.477866
1015.155273 0.477853
1014.527344 0.479891
1014.024414 0.461466
1013.383789 0.495867
1012.894531 0.509135
1012.240234 0.505396
1011.763672 0.511199
1011.095703 0.513848
1010.631836 0.517603
1009.951172 0.544817
1009.500977 0.546787
1008.806641 0.561832
1008.369141 0.565112
1007.662109 0.610995
1007.237305 0.606202
1006.516602 0.618338
1006.105469 0.600654
1005.371094 0.626749
1004.972656 0.654727
1004.224609 0.672644
1003.840820 0.686019
1003.079102 0.692815
1002.708008 0.690209
1001.932617 0.712976
1001.575195 0.718230
1000.785156 0.723494
1000.441406 0.763569
999.638672 0.729726
999.307617 0.748248
998.491211 0.696376
998.173828 0.742678
997.342773 0.688709
997.040039 0.770664
996.195313 0.694945
995.906250 0.754270
995.046875 0.630632
994.771484 0.722735
993.898438 0.595204
993.636719 0.621984
992.749023 0.574751
992.501953 0.621853
991.599609 0.561785
991.367188 0.570903
990.450195 0.536012
990.231445 0.568621
989.300781 0.532670
989.095703 0.559854
987.959961 0.524077
986.824219 0.512083
985.687500 0.495773
984.550781 0.485950
983.414063 0.461015
982.277344 0.465235
981.139648 0.427365
980.001953 0.458565
978.864258 0.422869
977.726563 0.456214
976.587891 0.449648
975.449219 0.468958
974.310547 0.464547
973.171875 0.462294
972.032227 0.467583
970.893555 0.470715
969.752930 0.472769
968.613281 0.473746
967.473633 0.502710
966.333008 0.488612
965.192383 0.526169
964.050781 0.477647
962.910156 0.481848
961.768555 0.496800
960.626953 0.494544
959.485352 0.479391
958.342773 0.463169
957.200195 0.455550
956.057617 0.452230
954.915039 0.427433
953.771484 0.445595
952.628906 0.445500
951.485352 0.415354
950.340820 0.416339
949.197266 0.407667
948.052734 0.406508
946.908203 0.417145
945.762695 0.411695
944.618164 0.422326
943.472656 0.410448
942.327148 0.398574
941.181641 0.399560
940.035156 0.445527
938.888672 0.419733
937.742188 0.432490
936.595703 0.432397
935.448242 0.433375
934.301758 0.447190
933.154297 0.444955
932.005859 0.435235
930.858398 0.418036
929.709961 0.436118
928.561523 0.417856
927.413086 0.430588
926.263672 0.460406
925.114258 0.433608
923.964844 0.449531
922.815430 0.457975
921.665039 0.445069
920.514648 0.432168
919.364258 0.423540
918.213867 0.443715
917.062500 0.436155
915.911133 0.409407
914.759766 0.426374
913.608398 0.411362
912.456055 0.435779
911.303711 0.404793
910.151367 0.414291
908.999023 0.413137
907.845703 0.420500
906.692383 0.440632
905.539063 0.394780
904.385742 0.435122
903.231445 0.420137
902.077148 0.438125
900.922852 0.432714
899.768555 0.442187
898.613281 0.438903
897.458008 0.415434
896.302734 0.444025
895.146484 0.441805
893.991211 0.439586
892.834961 0.434183
891.678711 0.482910
890.521484 0.484928
889.364258 0.489066
888.207031 0.479415
887.049805 0.532332
885.892578 0.522675
884.734375 0.542701
883.576172 0.536224
882.417969 0.577429
881.258789 0.582600
880.099609 0.614245
878.940430 0.608817
877.781250 0.585396
876.621094 0.646653
875.461914 0.626408
874.301758 0.648488
873.140625 0.613444
871.980469 0.591104
870.819336 0.564546
869.658203 0.558081
868.496094 0.576981
867.334961 0.538821
866.172852 0.548210
865.010742 0.551259
863.847656 0.519464
862.685547 0.538351
861.522461 0.502352
860.359375 0.518069
859.195313 0.507407
858.031250 0.503078
856.867188 0.526165
855.703125 0.496533
854.539063 0.487992
853.374023 0.505799
852.208984 0.495154
851.043945 0.496099
849.877930 0.501256
848.711914 0.519044
847.545898 0.479984
846.379883 0.501979
845.212891 0.526068
844.046875 0.507019
842.879883 0.515321
841.711914 0.519414
840.544922 0.517198
839.376953 0.518135
838.208008 0.513819
837.040039 0.565181
835.871094 0.573460
834.702148 0.614286
833.533203 0.649846
832.364258 0.727374
831.194336 0.769189
830.024414 0.873934
828.854492 0.939823
827.683594 0.985758
826.513672 0.991832
825.342773 1.000000
824.170898 0.967292
823.000000 0.962889
821.828125 0.877827
820.656250 0.796992
819.483398 0.776922
818.311523 0.724409
817.138672 0.648894
815.965820 0.618406
814.791992 0.618270
813.619141 0.577343
812.445313 0.569896
811.270508 0.545725
810.096680 0.525746
808.921875 0.533989
807.747070 0.547453
806.572266 0.513908
805.396484 0.516927
804.221680 0.505328
803.045898 0.498953
801.869141 0.500930
800.693359 0.513340
799.516602 0.497579
798.339844 0.526671
797.162109 0.528639
795.985352 0.507673
794.807617 0.478379
793.628906 0.490777
792.451172 0.514629
791.272461 0.498892
790.093750 0.542515
788.915039 0.529902
787.735352 0.532907
786.556641 0.524464
785.375977 0.556600
784.196289 0.529432
783.015625 0.563632
781.835938 0.559348
780.654297 0.533238
779.473633 0.553903
778.291992 0.557936
777.110352 0.570277
775.928711 0.584690
774.747070 0.579368
773.564453 0.587544
772.381836 0.580149
771.199219 0.613223
770.015625 0.640058
768.832031 0.645101
767.648438 0.684360
766.464844 0.699758
765.280273 0.659180
764.095703 0.721206
762.911133 0.721046
761.725586 0.726064
760.541016 0.799424
759.355469 0.777504
758.168945 0.792857
756.983398 0.806132
755.796875 0.795606
754.610352 0.770604
753.422852 0.762159
752.236328 0.733039
751.048828 0.700831
749.861328 0.662437
748.672852 0.650924
747.485352 0.615657
746.296875 0.591766
745.107422 0.627772
743.918945 0.598727
742.729492 0.576920
741.540039 0.587109
740.349609 0.595230
739.160156 0.574469
737.969727 0.567123
736.779297 0.555656
735.587891 0.579236
734.397461 0.563650
733.206055 0.531587
732.013672 0.553097
730.822266 0.522081
729.629883 0.532259
728.437500 0.544491
727.244141 0.547455
726.051758 0.567909
724.858398 0.554409
723.665039 0.535774
722.470703 0.503782
721.276367 0.510864
720.082031 0.522053
718.887695 0.473647
717.693359 0.473540
716.498047 0.493973
715.302734 0.477434
714.106445 0.470141
712.911133 0.465930
711.714844 0.441199
710.517578 0.455461
709.321289 0.462538
708.124023 0.484991
706.926758 0.466430
705.729492 0.435578
704.531250 0.477490
703.333008 0.484554
702.134766 0.503904
700.936523 0.514030
699.737305 0.490368
698.538086 0.474904
697.338867 0.489123
696.138672 0.486966
694.938477 0.480719
693.738281 0.490836
692.538086 0.481524
691.336914 0.466083
690.135742 0.482328
688.934570 0.486305
687.732422 0.503559
686.531250 0.499360
685.328125 0.526813
684.125977 0.535880
682.923828 0.480652
681.720703 0.492786
680.516602 0.496754
679.313477 0.492562
678.109375 0.490412
676.905273 0.516803
675.701172 0.504456
674.496094 0.504342
673.291992 0.534786
672.085938 0.516333
670.880859 0.549816
669.674805 0.545619
668.468750 0.537353
667.262695 0.553511
666.055664 0.490315
664.849609 0.512578
663.642578 0.525680
662.434570 0.528610
661.227539 0.554914
660.019531 0.527353
658.810547 0.533328
657.602539 0.537269
656.393555 0.524961
655.184570 0.523826
653.975586 0.487169
652.765625 0.506337
651.555664 0.525497
650.345703 0.481764
649.134766 0.497879
647.924805 0.472420
646.712891 0.501705
645.501953 0.505644
644.291016 0.457913
643.079102 0.464899
641.866211 0.459729
640.654297 0.489996
639.441406 0.486847
638.228516 0.460426
637.015625 0.453238
635.801758 0.500673
634.587891 0.469210
633.374023 0.493367
632.160156 0.487189
630.945313 0.484046
629.730469 0.463729
628.514648 0.488874
627.299805 0.521077
626.083984 0.494707
624.868164 0.492575
623.651367 0.491453
622.435547 0.463090
621.218750 0.496270
620.000977 0.498173
618.784180 0.495034
617.566406 0.484840
616.347656 0.524031
615.129883 0.496708
613.911133 0.533863
612.692383 0.490437
611.473633 0.465153
610.253906 0.471085
609.034180 0.525320
607.814453 0.469862
606.594727 0.503954
605.374023 0.488753
604.153320 0.492662
602.931641 0.514663
601.710938 0.497460
600.489258 0.500359
599.267578 0.512298
598.044922 0.497115
596.822266 0.491980
595.599609 0.509935
594.376953 0.472685
593.153320 0.491639
591.929688 0.509581
590.706055 0.469348
589.481445 0.472248
588.257813 0.480158
587.032227 0.494077
585.807617 0.514002
584.582031 0.499858
583.356445 0.483719
582.130859 0.506636
580.905273 0.495507
579.678711 0.532421
578.452148 0.514288
577.224609 0.536175
575.997070 0.508048
574.769531 0.522928
573.541992 0.514810
572.313477 0.518688
571.084961 0.513571
569.856445 0.553409
568.627930 0.537302
567.398438 0.535180
566.168945 0.555020
564.939453 0.539921
563.708984 0.508864
562.478516 0.527699
561.248047 0.508627
560.016602 0.512497
558.785156 0.510384
557.553711 0.490332
556.322266 0.492211
555.089844 0.537919
553.857422 0.505924
552.625000 0.532689
551.391602 0.517633
550.158203 0.520498
548.924805 0.501472
547.690430 0.492402
546.457031 0.507204
545.222656 0.518023
543.987305 0.516908
542.752930 0.474053
541.517578 0.491826
540.281250 0.499658
539.045898 0.485637
537.809570 0.491481
536.573242 0.491366
535.335938 0.476364
534.099609 0.477245
532.861328 0.494988
531.624023 0.489913
530.385742 0.496739
529.148438 0.482744
527.909180 0.512362
526.670898 0.511251
525.431641 0.490329
524.192383 0.509030
522.952148 0.510890
521.712891 0.515720
520.472656 0.489868
519.231445 0.520424
517.991211 0.489637
516.750000 0.523146
515.508789 0.487429
514.266602 0.493245
513.024414 0.494117
511.782227 0.497953
510.540039 0.495860
509.296875 0.509568
508.053711 0.491677
506.810547 0.471819
505.566406 0.499339
504.322266 0.488369
503.078125 0.507981
501.833008 0.511805
500.587891 0.523515
499.342773 0.522406
498.097656 0.499617
496.851563 0.495558
495.605469 0.513170
494.359375 0.515018
493.112305 0.508004
491.865234 0.529538
490.618164 0.515636
489.370117 0.543060
488.123047 0.539981
486.874023 0.543786
485.625977 0.559387
484.376953 0.544511
483.127930 0.567965
481.878906 0.552111
480.628906 0.585374
479.378906 0.570506
478.128906 0.600803
476.877930 0.557475
475.626953 0.594630
474.375977 0.589583
473.125000 0.609058
471.873047 0.628524
470.621094 0.626413
469.368164 0.658606
468.115234 0.688824
466.862305 0.698456
465.609375 0.685557
464.355469 0.744142
463.102539 0.755711
461.847656 0.815229
460.593750 0.832646
459.338867 0.900921
458.083984 0.922221
456.828125 0.995330
455.572266 1.063517
454.316406 1.105284
453.060547 1.117721
451.803711 1.021728
450.546875 0.975584
449.290039 0.924582
448.032227 0.821870
446.774414 0.786542
445.516602 0.762938
444.257813 0.715936
442.999023 0.696262
441.740234 0.657097
440.481445 0.658889
439.221680 0.659705
437.961914 0.642010
436.701172 0.642830
435.441406 0.630990
434.180664 0.667832
432.918945 0.644312
431.658203 0.646103
430.396484 0.673186
429.133789 0.686640
427.872070 0.670917
426.609375 0.659090
425.346680 0.671565
424.083008 0.643226
422.819336 0.667355
421.555664 0.664281
420.291016 0.636934
419.027344 0.643575
417.762695 0.639537
416.497070 0.617067
415.231445 0.583938
413.965820 0.633255
412.700195 0.598198
411.433594 0.620347
410.166992 0.607599
408.900391 0.625859
407.632813 0.611178
406.365234 0.603283
405.097656 0.636053
403.830078 0.606862
402.561523 0.647356
401.291992 0.626883
400.023438 0.656713
398.753906 0.649784
397.484375 0.657360
396.214844 0.660099
394.944336 0.695689
393.673828 0.694554
392.402344 0.688590
391.130859 0.724147
389.859375 0.689220
388.587891 0.740199
387.315430 0.740019
386.042969 0.745626
384.770508 0.774374
383.497070 0.734656
382.223633 0.773996
380.950195 0.715988
379.676758 0.763983
378.402344 0.760906
377.126953 0.792497
375.852539 0.749944
374.577148 0.727624
373.301758 0.729370
372.025391 0.770556
370.749023 0.771329
369.472656 0.776909
368.196289 0.772873
366.918945 0.771722
365.641602 0.765768
364.363281 0.753092
363.085938 0.748105
361.807617 0.748881
360.528320 0.760215
359.249023 0.748512
357.969727 0.770394
356.690430 0.728960
355.410156 0.700013
354.129883 0.750650
352.849609 0.739922
351.568359 0.716743
350.287109 0.750095
349.005859 0.747036
347.723633 0.751639
346.441406 0.722735
345.159180 0.721599
343.875977 0.740557
342.592773 0.717416
341.309570 0.702893
340.026367 0.704631
338.742188 0.710192
337.457031 0.684214
336.172852 0.701241
334.887695 0.670503
333.602539 0.644554
332.316406 0.692127
331.030273 0.683365
329.744141 0.647890
328.457031 0.653453
327.170898 0.678086
325.882813 0.672197
324.595703 0.643432
323.307617 0.630883
322.019531 0.638348
320.730469 0.628663
319.441406 0.634220
318.152344 0.628349
316.863281 0.647229
315.573242 0.632793
314.283203 0.643100
312.992188 0.619162
311.701172 0.661795
310.410156 0.646420
309.119141 0.679521
307.827148 0.700254
306.535156 0.710527
305.242188 0.681859
303.950195 0.701626
302.656250 0.723281
301.363281 0.717406
300.069336 0.709636
298.775391 0.746448
297.480469 0.754794
296.186523 0.747020
294.891602 0.770526
293.595703 0.818655
292.299805 0.774874
291.003906 0.805931
289.708008 0.793420
288.411133 0.845280
287.114258 0.870618
285.816406 0.876074
284.518555 0.960979
283.220703 0.966410
281.922852 1.011543
280.624023 1.026409
279.325195 1.059220
278.025391 1.115631
276.725586 1.108737
275.425781 1.126395
274.125977 1.221447
272.825195 1.250391
271.523438 1.321776
270.222656 1.439342
268.920898 1.455949
267.619141 1.548909
266.316406 1.621087
265.013672 1.654596
263.710938 1.709753
262.408203 1.882604
261.104492 1.869884
259.799805 1.953182
258.496094 1.965858
257.191406 2.081076
255.886719 2.112524
254.581055 2.147717
253.275391 2.205453
251.969727 2.266919
250.663086 2.273856
249.356445 2.328696
248.049805 2.339369
246.742188 2.422331
245.434570 2.381348
244.126953 2.483023
242.818359 2.457993
241.509766 2.417969
240.201172 2.420160
238.891602 2.415788
237.582031 2.370181
236.271484 2.372382
234.961914 2.349290
233.650391 2.298115
232.339844 2.253519
231.028320 2.209882
229.716797 2.199954
228.405273 2.155417
227.092773 2.119320
225.779297 2.110357
224.466797 2.078029
223.153320 2.092444
221.839844 2.095639
220.525391 2.086690
219.210938 1.999304
217.896484 2.009055
216.581055 2.029067
215.265625 1.999614
213.950195 1.989767
212.633789 1.978058
211.317383 1.927196
210.000977 1.948134
208.683594 1.886123
207.366211 1.885631
206.048828 1.899111
204.730469 1.839953
203.412109 1.789204
202.092773 1.798975
200.773438 1.743610
199.454102 1.724551
198.133789 1.707361
196.814453 1.733876
195.493164 1.737140
194.172852 1.752481
192.851563 1.714863
191.529297 1.718129
190.208008 1.733462
188.885742 1.680098
187.562500 1.698217
186.239258 1.719108
184.916016 1.710309
183.592773 1.680187
182.268555 1.728876
180.944336 1.797002
179.619141 1.728892
178.293945 1.730289
176.968750 1.786320
175.643555 1.780294
174.317383 1.745579
172.990234 1.738640
171.664063 1.759457
170.336914 1.819104
169.008789 1.838038
167.680664 1.848644
166.352539 1.867559
165.024414 1.872607
163.695313 1.909977
162.366211 1.956560
161.036133 1.979118
159.706055 2.057957
158.375977 2.123837
157.044922 2.153710
155.713867 2.259180
154.382813 2.371967
153.050781 2.399905
151.718750 2.449020
150.385742 2.519293
149.053711 2.650307
147.719727 2.694710
146.386719 2.705954
145.052734 2.779762
143.717773 2.767979
142.383789 2.859203
141.048828 2.900729
139.712891 2.967969
138.377930 2.991064
137.041016 2.993936
135.705078 3.043644
134.368164 3.012526
133.031250 3.034664
131.693359 3.058624
130.355469 3.133030
129.017578 3.042301
127.678711 3.153347
126.339844 3.124079
125.000977 3.118653
123.661133 3.137050
122.321289 3.105060
120.980469 3.207694
119.639648 3.185770
118.298828 3.127249
116.957031 3.176724
115.615234 3.249954
114.273438 3.201520
112.930664 3.301214
111.587891 3.304886
110.244141 3.323176
108.900391 3.334147
107.556641 3.228219
106.211914 3.144260
104.867188 3.054869
103.522461 2.807669
102.176758 2.607126
100.831055 2.380245
99.484375 2.089667
98.137695 1.788309
