3198.529297 0.010432
3197.824219 0.010431
3197.119141 0.007300
3196.414063 0.018769
3195.708008 0.013554
3195.001953 0.004170
3194.296875 0.015634
3193.590820 0.000000
3192.884766 0.012503
3192.178711 0.015626
3191.472656 0.007291
3190.765625 0.007290
3190.059570 0.013537
3189.352539 0.009370
3188.646484 0.017696
3187.939453 0.011449
3187.232422 0.012487
3186.525391 0.008324
3185.818359 0.007282
3185.111328 0.013522
3184.404297 0.017679
3183.696289 0.004159
3182.989258 0.008317
3182.281250 0.015592
3181.573242 0.013511
3180.865234 0.010391
3180.157227 0.008312
3179.449219 0.001039
3178.741211 0.016618
3178.033203 0.013500
3177.324219 0.015575
3176.616211 0.014534
3175.907227 0.014532
3175.198242 0.011416
3174.489258 -0.002075
3173.780273 0.012450
3173.071289 0.008299
3172.362305 0.016594
3171.652344 0.010370
3170.943359 0.004147
3170.233398 0.016586
3169.523438 0.012438
3168.814453 0.000000
3168.104492 0.011398
3167.394531 0.007252
3166.683594 0.012430
3165.973633 0.011392
3165.263672 0.010355
3164.552734 0.010353
3163.841797 0.007246
3163.130859 0.010350
3162.420898 0.010348
3161.709961 0.006208
3160.998047 0.015517
3160.287109 0.001034
3159.576172 0.015512
3158.864258 0.013442
3158.153320 0.005169
3157.441406 0.019639
3156.729492 0.018602
3156.017578 0.009300
3155.305664 0.013431
3154.593750 0.009297
3153.880859 0.002066
3153.168945 0.015489
3152.456055 0.016519
3151.744141 0.008258
3151.031250 0.010321
3150.318359 0.014447
3149.605469 0.014445
3148.892578 0.008253
3148.178711 0.008251
3147.465820 0.006188
3146.751953 0.014435
3146.039063 0.007216
3145.325195 0.011338
3144.611328 0.002061
3143.897461 0.007213
3143.183594 0.021635
3142.468750 0.018541
3141.754883 0.015448
3141.041016 0.019565
3140.326172 0.011325
3139.611328 0.008235
3138.896484 0.015438
3138.181641 0.017494
3137.466797 0.011318
3136.751953 0.010287
3136.037109 0.012342
3135.321289 0.013369
3134.605469 0.002056
3133.890625 0.009252
3133.174805 0.014390
3132.458984 0.016443
3131.743164 0.009247
3131.027344 0.018492
3130.310547 0.003081
3129.594727 0.013351
3128.877930 0.014375
3128.161133 0.008213
3127.445313 0.006159
3126.728516 0.017447
3126.010742 0.014366
3125.293945 0.011285
3124.577148 0.006155
3123.859375 0.018461
3123.142578 0.009229
3122.424805 0.014353
3121.707031 0.011276
3120.989258 0.010249
3120.271484 0.007173
3119.553711 0.005123
3118.835938 0.014341
3118.117188 0.016387
3117.399414 0.013312
3116.680664 0.022525
3115.961914 0.012284
3115.243164 0.011259
3114.524414 0.010233
3113.805664 0.019440
3113.086914 0.015345
3112.367188 0.009205
3111.648438 0.019430
3110.928711 0.013292
3110.208984 0.019423
3109.489258 0.019420
3108.769531 0.012263
3108.049805 0.015326
3107.329102 0.012259
3106.609375 0.007150
3105.888672 0.021446
3105.168945 0.017358
3104.448242 0.016334
3103.727539 0.015311
3103.006836 0.020411
3102.285156 0.021428
3101.564453 0.007141
3100.843750 0.016320
3100.122070 0.010198
3099.400391 0.009177
3098.678711 0.015292
3097.957031 0.010193
3097.235352 0.015287
3096.513672 0.022417
3095.791992 0.018338
3095.069336 0.012223
3094.346680 0.010184
3093.625000 0.013237
3092.902344 0.014253
3092.179688 0.015268
3091.457031 0.014248
3090.733398 0.010175
3090.010742 0.016278
3089.287109 0.021361
3088.564453 0.011187
3087.840820 0.010168
3087.117188 0.013217
3086.393555 0.016264
3085.669922 0.011179
3084.946289 0.011177
3084.221680 0.017271
3083.498047 0.017268
3082.773438 0.015234
3082.048828 0.018277
3081.324219 0.023350
3080.599609 0.009136
3079.875000 0.011164
3079.149414 0.018265
3078.424805 0.016232
3077.699219 0.008115
3076.974609 0.016227
3076.249023 0.020280
3075.523438 0.009124
3074.797852 0.019259
3074.071289 0.018242
3073.345703 0.015199
3072.619141 0.012157
3071.893555 0.016207
3071.166992 0.024306
3070.440430 0.019239
3069.713867 0.018223
3068.987305 0.015183
3068.259766 0.013156
3067.533203 0.016190
3066.805664 0.021245
3066.079102 0.016184
3065.351563 0.023260
3064.624023 0.031345
3063.896484 0.015164
3063.168945 0.022237
3062.440430 0.020212
3061.712891 0.022229
3060.984375 0.023235
3060.255859 0.024241
3059.527344 0.021207
3058.798828 0.015145
3058.070313 0.022209
3057.341797 0.025233
3056.613281 0.017156
3055.883789 0.009081
3055.154297 0.020176
3054.424805 0.019164
3053.695313 0.024202
3052.965820 0.019157
3052.236328 0.018145
3051.506836 0.014110
3050.776367 0.015116
3050.046875 0.020151
3049.316406 0.017125
3048.585938 0.020143
3047.855469 0.016112
3047.125000 0.006041
3046.393555 0.020133
3045.663086 0.020129
3044.931641 0.033207
3044.201172 0.004024
3043.469727 0.020118
3042.738281 0.013074
3042.006836 0.024133
3041.275391 0.019102
3040.542969 0.023119
3039.811523 0.024120
3039.079102 0.022106
3038.346680 0.017079
3037.614258 0.017076
3036.881836 0.016068
3036.149414 0.020082
3035.416992 0.020078
3034.683594 0.012045
3033.951172 0.027096
3033.217773 0.013044
3032.484375 0.017054
3031.750977 0.023069
3031.017578 0.007020
3030.284180 0.024063
3029.549805 0.020049
3028.816406 0.022050
3028.082031 0.023048
3027.347656 0.029056
3026.613281 0.015026
3025.878906 0.016025
3025.144531 0.019026
3024.410156 0.018021
3023.674805 0.036036
3022.939453 0.015012
3022.205078 0.023015
3021.469727 0.017008
3020.734375 0.020006
3019.999023 0.021002
3019.262695 0.029997
3018.527344 0.016995
3017.791016 0.017992
3017.054688 0.030980
3016.318359 0.027977
3015.582031 0.024975
3014.845703 0.025969
3014.109375 0.033954
3013.373047 0.030952
3012.635742 0.025955
3011.898438 0.018964
3011.161133 0.016964
3010.424805 0.028934
3009.686523 0.031921
3008.949219 0.023937
3008.211914 0.019943
3007.473633 0.019940
3006.736328 0.021930
3005.998047 0.028902
3005.259766 0.026904
3004.521484 0.032876
3003.782227 0.019921
3003.043945 0.022905
3002.305664 0.019914
3001.566406 0.032852
3000.827148 0.017916
3000.087891 0.036821
2999.348633 0.027859
2998.609375 0.030839
2997.870117 0.022876
2997.129883 0.032816
2996.389648 0.028833
2995.650391 0.037774
2994.910156 0.025841
2994.169922 0.026830
2993.429688 0.025831
2992.688477 0.033773
2991.948242 0.031780
2991.207031 0.024824
2990.465820 0.029783
2989.725586 0.026800
2988.983398 0.029772
2988.242188 0.030759
2987.500977 0.030753
2986.759766 0.034715
2986.017578 0.035700
2985.275391 0.032719
2984.533203 0.032713
2983.791016 0.036671
2983.048828 0.032701
2982.306641 0.048547
2981.563477 0.037641
2980.821289 0.039615
2980.078125 0.037627
2979.334961 0.044550
2978.591797 0.042562
2977.848633 0.060368
2977.105469 0.050462
2976.361328 0.052431
2975.618164 0.040553
2974.874023 0.055379
2974.129883 0.042515
2973.385742 0.052392
2972.641602 0.052382
2971.897461 0.066207
2971.152344 0.061255
2970.408203 0.055317
2969.663086 0.058269
2968.917969 0.064183
2968.172852 0.065158
2967.427734 0.064159
2966.682617 0.074015
2965.936523 0.066108
2965.191406 0.074974
2964.445313 0.064111
2963.699219 0.070015
2962.953125 0.068030
2962.207031 0.079847
2961.460938 0.082788
2960.713867 0.082773
2959.967773 0.085713
2959.220703 0.088652
2958.473633 0.080757
2957.726563 0.092557
2956.979492 0.097462
2956.232422 0.083664
2955.484375 0.090537
2954.737305 0.095439
2953.989258 0.091486
2953.241211 0.081634
2952.493164 0.099319
2951.745117 0.100283
2950.997070 0.092401
2950.248047 0.090418
2949.500000 0.090400
2948.750977 0.104137
2948.001953 0.104118
2947.252930 0.103116
2946.503906 0.105060
2945.754883 0.105040
2945.004883 0.103058
2944.255859 0.100094
2943.505859 0.093207
2942.755859 0.107904
2942.005859 0.100037
2941.255859 0.102960
2940.504883 0.109803
2939.754883 0.099000
2939.003906 0.098982
2938.252930 0.099943
2937.502930 0.104822
2936.750977 0.110679
2936.000000 0.102824
2935.249023 0.097909
2934.497070 0.092996
2933.746094 0.091021
2932.994141 0.098831
2932.242188 0.083159
2931.490234 0.087056
2930.738281 0.088017
2929.985352 0.082134
2929.233398 0.093850
2928.480469 0.080148
2927.727539 0.070360
2926.974609 0.083049
2926.221680 0.081079
2925.468750 0.083017
2924.715820 0.068354
2923.961914 0.067365
2923.208008 0.074184
2922.455078 0.081978
2921.701172 0.064399
2920.946289 0.067313
2920.192383 0.067300
2919.438477 0.066312
2918.683594 0.057525
2917.928711 0.072136
2917.173828 0.065300
2916.418945 0.072108
2915.664063 0.064300
2914.909180 0.078899
2914.153320 0.071093
2913.398438 0.063290
2912.642578 0.070092
2911.886719 0.078839
2911.130859 0.068119
2910.375000 0.075890
2909.619141 0.069066
2908.862305 0.059327
2908.105469 0.052509
2907.349609 0.066110
2906.592773 0.059293
2905.835938 0.068028
2905.078125 0.052469
2904.321289 0.067030
2903.563477 0.060219
2902.806641 0.064091
2902.048828 0.066992
2901.291016 0.062125
2900.533203 0.062113
2899.774414 0.064042
2899.016602 0.069851
2898.257813 0.064987
2897.500000 0.068854
2896.741211 0.072719
2895.982422 0.054286
2895.222656 0.059122
2894.463867 0.066863
2893.705078 0.063943
2892.945313 0.077492
2892.185547 0.069730
2891.425781 0.068748
2890.666016 0.062926
2889.906250 0.071625
2889.146484 0.066773
2888.385742 0.052247
2887.625000 0.066747
2886.864258 0.060931
2886.103516 0.062853
2885.342773 0.062841
2884.582031 0.066695
2883.821289 0.061850
2883.059570 0.064737
2882.297852 0.055064
2881.536133 0.066644
2880.774414 0.046352
2880.012695 0.061790
2879.250977 0.058883
2878.488281 0.066592
2877.726563 0.055965
2876.963867 0.050166
2876.201172 0.057872
2875.438477 0.071362
2874.674805 0.069420
2873.912109 0.070371
2873.149414 0.071321
2872.385742 0.051071
2871.622070 0.068403
2870.858398 0.070316
2870.094727 0.062598
2869.330078 0.067400
2868.566406 0.065462
2867.801758 0.070261
2867.038086 0.061587
2866.273438 0.053878
2865.508789 0.063487
2864.743164 0.064436
2863.978516 0.058654
2863.212891 0.064411
2862.448242 0.063437
2861.682617 0.064386
2860.916992 0.073021
2860.151367 0.066282
2859.384766 0.054744
2858.619141 0.060495
2857.852539 0.065283
2857.086914 0.070070
2856.320313 0.063338
2855.553711 0.064286
2854.786133 0.060436
2854.019531 0.059465
2853.251953 0.052741
2852.485352 0.051772
2851.717773 0.068057
2850.950195 0.060377
2850.182617 0.057490
2849.414063 0.057479
2848.646484 0.059384
2847.877930 0.050753
2847.110352 0.054573
2846.341797 0.069878
2845.573242 0.061251
2844.803711 0.066023
2844.035156 0.055487
2843.266602 0.050694
2842.497070 0.055465
2841.727539 0.055454
2840.958008 0.044928
2840.188477 0.048743
2839.418945 0.054466
2838.648438 0.057322
2837.878906 0.061131
2837.108398 0.067804
2836.337891 0.060152
2835.567383 0.062050
2834.795898 0.051539
2834.025391 0.055346
2833.254883 0.053427
2832.483398 0.062001
2831.711914 0.052452
2830.940430 0.056256
2830.168945 0.049571
2829.397461 0.045749
2828.625000 0.049552
2827.852539 0.064786
2827.081055 0.056200
2826.308594 0.040951
2825.536133 0.059035
2824.762695 0.040935
2823.990234 0.057108
2823.216797 0.047580
2822.444336 0.043765
2821.670898 0.052318
2820.897461 0.057063
2820.123047 0.043739
2819.349609 0.043731
2818.576172 0.053227
2817.801758 0.049415
2817.027344 0.050356
2816.252930 0.052245
2815.478516 0.061732
2814.704102 0.039881
2813.928711 0.047468
2813.154297 0.048407
2812.378906 0.054092
2811.603516 0.046491
2810.828125 0.038893
2810.052734 0.053111
2809.276367 0.048360
2808.500977 0.042662
2807.724609 0.046445
2806.948242 0.052121
2806.171875 0.047374
2805.395508 0.048312
2804.619141 0.045461
2803.841797 0.039770
2803.064453 0.043549
2802.288086 0.049220
2801.510742 0.045425
2800.733398 0.055823
2799.955078 0.041623
2799.177734 0.042560
2798.399414 0.047280
2797.621094 0.051997
2796.842773 0.048206
2796.064453 0.050087
2795.286133 0.050077
2794.507813 0.046288
2793.728516 0.048168
2792.950195 0.045325
2792.170898 0.035875
2791.391602 0.045307
2790.611328 0.048129
2789.832031 0.041515
2789.052734 0.048110
2788.272461 0.054703
2787.492188 0.039604
2786.711914 0.043367
2785.931641 0.047129
2785.151367 0.059371
2784.370117 0.047110
2783.588867 0.035797
2782.808594 0.049917
2782.027344 0.046140
2781.246094 0.047073
2780.463867 0.038592
2779.682617 0.047995
2778.900391 0.046103
2778.119141 0.044213
2777.336914 0.058312
2776.554688 0.052658
2775.771484 0.047007
2774.989258 0.046057
2774.206055 0.044169
2773.423828 0.053555
2772.640625 0.046969
2771.857422 0.046020
2771.074219 0.048828
2770.290039 0.047880
2769.506836 0.045054
2768.722656 0.045983
2767.938477 0.045974
2767.154297 0.047841
2766.370117 0.050645
2765.585938 0.047822
2764.800781 0.050625
2764.016602 0.050615
2763.231445 0.046856
2762.446289 0.046846
2761.661133 0.038406
2760.875000 0.043081
2760.089844 0.046818
2759.303711 0.055234
2758.518555 0.046799
2757.732422 0.056148
2756.945313 0.043038
2756.159180 0.043965
2755.373047 0.046762
2754.585938 0.043947
2753.798828 0.041134
2753.012695 0.047668
2752.224609 0.042051
2751.437500 0.045780
2750.650391 0.045771
2749.862305 0.047629
2749.074219 0.046686
2748.287109 0.050411
2747.499023 0.042001
2746.709961 0.046658
2745.921875 0.041984
2745.132813 0.044773
2744.344727 0.050360
2743.555664 0.052214
2742.766602 0.046611
2741.977539 0.046601
2741.187500 0.058706
2740.398438 0.048446
2739.608398 0.054956
2738.818359 0.054945
2738.028320 0.048416
2737.238281 0.053992
2736.448242 0.049327
2735.657227 0.064205
2734.866211 0.050237
2734.075195 0.043716
2733.284180 0.053007
2732.493164 0.054856
2731.702148 0.035324
2730.910156 0.048328
2730.119141 0.040884
2729.327148 0.051095
2728.535156 0.042725
2727.743164 0.047360
2726.950195 0.046422
2726.158203 0.050125
2725.365234 0.044547
2724.572266 0.054744
2723.779297 0.062154
2722.986328 0.047302
2722.193359 0.043583
2721.399414 0.057481
2720.606445 0.049127
2719.812500 0.034289
2719.018555 0.053739
2718.224609 0.051876
2717.430664 0.049086
2716.635742 0.049076
2715.840820 0.054621
2715.046875 0.049982
2714.251953 0.049972
2713.456055 0.055513
2712.661133 0.049951
2711.866211 0.044392
2711.070313 0.048082
2710.274414 0.040676
2709.478516 0.054532
2708.682617 0.054521
2707.886719 0.045270
2707.089844 0.051727
2706.293945 0.040634
2705.497070 0.052629
2704.700195 0.054465
2703.903320 0.039686
2703.105469 0.046137
2702.308594 0.056276
2701.510742 0.060876
2700.712891 0.040576
2699.915039 0.046100
2699.117188 0.052543
2698.319336 0.056218
2697.520508 0.039621
2696.722656 0.052510
2695.923828 0.060789
2695.125000 0.049726
2694.326172 0.050636
2693.526367 0.056149
2692.727539 0.056137
2691.927734 0.053365
2691.127930 0.049675
2690.328125 0.048745
2689.528320 0.059769
2688.728516 0.054241
2687.927734 0.056987
2687.126953 0.056056
2686.326172 0.050532
2685.525391 0.046847
2684.724609 0.045919
2683.923828 0.056010
2683.122070 0.052326
2682.321289 0.049562
2681.519531 0.058728
2680.717773 0.053211
2679.915039 0.047697
2679.113281 0.050438
2678.310547 0.049511
2677.508789 0.064167
2676.706055 0.047657
2675.903320 0.047647
2675.099609 0.052218
2674.296875 0.051291
2673.493164 0.052196
2672.690430 0.051270
2671.886719 0.043936
2671.083008 0.054909
2670.278320 0.044833
2669.474609 0.053971
2668.669922 0.053960
2667.865234 0.052120
2667.060547 0.050281
2666.255859 0.053012
2665.451172 0.050260
2664.646484 0.049336
2663.840820 0.055719
2663.035156 0.061187
2662.229492 0.055696
2661.423828 0.049295
2660.618164 0.057498
2659.811523 0.056574
2659.004883 0.054737
2658.199219 0.055638
2657.391602 0.054714
2656.584961 0.055615
2655.778320 0.057426
2655.033203 0.047493
2654.970703 0.042833
2654.227539 0.052973
2654.164063 0.048291
2653.421875 0.058444
2653.356445 0.051924
2652.616211 0.042000
2652.548828 0.061021
2651.810547 0.059338
2651.740234 0.046439
2651.004883 0.052027
2650.932617 0.051892
2650.198242 0.052931
2650.124023 0.043689
2649.392578 0.056572
2649.316406 0.058240
2648.585938 0.041966
2648.507813 0.062777
2647.779297 0.057466
2647.699219 0.052758
2646.972656 0.051984
2646.889648 0.065479
2646.166016 0.059271
2646.081055 0.052736
2645.359375 0.054703
2645.271484 0.050906
2644.552734 0.059252
2644.461914 0.066346
2643.745117 0.045571
2643.652344 0.044524
2642.938477 0.056498
2642.842773 0.059050
2642.130859 0.051934
2642.033203 0.052680
2641.323242 0.060124
2641.222656 0.046312
2640.515625 0.059203
2640.413086 0.045395
2639.708008 0.055551
2639.602539 0.045385
2638.899414 0.061915
2638.791992 0.053543
2638.091797 0.045519
2637.981445 0.054439
2637.283203 0.050062
2637.169922 0.052613
2636.475586 0.050964
2636.359375 0.057137
2635.666992 0.060965
2635.547852 0.056218
2634.858398 0.052767
2634.736328 0.065272
2634.049805 0.052758
2633.924805 0.054382
2633.241211 0.050930
2633.113281 0.062526
2632.431641 0.052741
2632.300781 0.054359
2631.623047 0.047277
2631.489258 0.066122
2630.813477 0.049996
2630.676758 0.062486
2630.003906 0.070892
2629.864258 0.051608
2629.194336 0.041801
2629.051758 0.056123
2628.384766 0.059966
2628.238281 0.051586
2627.575195 0.051780
2627.425781 0.046146
2626.765625 0.064487
2626.612305 0.074180
2625.955078 0.059936
2625.798828 0.056980
2625.145508 0.056294
2624.985352 0.055159
2624.334961 0.057192
2624.171875 0.060572
2623.524414 0.064444
2623.358398 0.065982
2622.713867 0.054451
2622.543945 0.049702
2621.903320 0.055349
2621.729492 0.053306
2621.092773 0.055340
2620.916016 0.051488
2620.281250 0.063494
2620.100586 0.050574
2619.469727 0.060763
2619.286133 0.051466
2618.659180 0.062566
2618.471680 0.060482
2617.847656 0.053490
2617.656250 0.069494
2617.036133 0.056200
2616.840820 0.064968
2616.224609 0.045315
2616.025391 0.069465
2615.412109 0.061618
2615.209961 0.065842
2614.600586 0.053454
2614.394531 0.049596
2613.788086 0.061597
2613.578125 0.060405
2612.976563 0.066115
2612.762695 0.054082
2612.164063 0.048899
2611.946289 0.065786
2611.351563 0.053418
2611.129883 0.061267
2610.539063 0.054314
2610.312500 0.060353
2609.726563 0.062450
2609.496094 0.052235
2608.913086 0.054295
2608.678711 0.063929
2608.100586 0.065144
2607.862305 0.061215
2607.287109 0.064228
2607.044922 0.066602
2606.473633 0.054268
2606.227539 0.053090
2605.660156 0.060589
2605.409180 0.053078
2604.846680 0.066908
2604.591797 0.063860
2604.033203 0.068704
2603.773438 0.053056
2603.218750 0.059654
2602.955078 0.062934
2602.405273 0.059644
2602.136719 0.067415
2601.590820 0.062345
2601.318359 0.057515
2600.776367 0.063237
2600.500000 0.058401
2599.961914 0.064130
2599.680664 0.058389
2599.147461 0.055088
2598.861328 0.064663
2598.333008 0.072234
2598.042969 0.066445
2597.518555 0.048750
2597.222656 0.058351
2596.703125 0.058670
2596.403320 0.060133
2595.888672 0.047831
2595.583984 0.068196
2595.073242 0.059552
2594.763672 0.061902
2594.257813 0.063151
2593.943359 0.060095
2593.442383 0.061336
2593.123047 0.063669
2592.625977 0.064933
2592.302734 0.058276
2591.810547 0.069430
2591.482422 0.060056
2590.994141 0.056797
2590.661133 0.057354
2590.178711 0.055886
2589.839844 0.067197
2589.362305 0.056777
2589.018555 0.056434
2588.545898 0.071185
2588.197266 0.062691
2587.729492 0.066668
2587.375977 0.060886
2586.913086 0.057649
2586.554688 0.058187
2586.095703 0.056738
2585.732422 0.054595
2585.279297 0.062131
2584.910156 0.057267
2584.461914 0.044114
2584.087891 0.055466
2583.644531 0.058509
2583.265625 0.059032
2582.827148 0.079198
2582.443359 0.059913
2582.009766 0.046791
2581.620117 0.063476
2581.192383 0.070174
2580.796875 0.057205
2580.374023 0.058468
2579.973633 0.063449
2579.556641 0.062955
2579.150391 0.056287
2578.738281 0.053053
2578.327148 0.056275
2577.919922 0.059337
2577.503906 0.059835
2577.101563 0.066518
2576.679688 0.068751
2576.283203 0.053924
2575.855469 0.060702
2575.464844 0.064697
2575.031250 0.054441
2574.645508 0.061092
2574.207031 0.058891
2573.827148 0.068268
2573.381836 0.060662
2573.007813 0.063765
2572.557617 0.049946
2572.188477 0.063754
2571.732422 0.060636
2571.369141 0.058356
2570.907227 0.056165
2570.549805 0.061937
2570.082031 0.061500
2569.730469 0.062823
2569.256836 0.069507
2568.910156 0.057428
2568.430664 0.058801
2568.090820 0.062801
2567.605469 0.048990
2567.270508 0.058305
2566.779297 0.068571
2566.450195 0.062779
2565.953125 0.064995
2565.629883 0.075322
2565.125977 0.058749
2564.809570 0.066343
2564.299805 0.058737
2563.989258 0.057368
2563.472656 0.064062
2563.167969 0.064528
2562.646484 0.051594
2562.346680 0.072581
2561.819336 0.067592
2561.526367 0.064505
2560.992188 0.060463
2560.705078 0.060911
2560.164063 0.061339
2559.883789 0.068065
2559.336914 0.060437
2559.061523 0.052830
2558.508789 0.055981
2558.240234 0.066250
2557.680664 0.063964
2557.417969 0.053707
2556.852539 0.055068
2556.596680 0.067121
2556.024414 0.065712
2555.774414 0.071584
2555.195313 0.066585
2554.952148 0.057257
2554.367188 0.063908
2554.129883 0.059930
2553.538086 0.056794
2553.307617 0.076017
2552.708984 0.069203
2552.484375 0.062591
2551.878906 0.065639
2551.662109 0.068838
2551.049805 0.071833
2550.838867 0.059887
2550.219727 0.072704
2550.015625 0.073282
2549.390625 0.060277
2549.192383 0.074163
2548.560547 0.064695
2548.369141 0.067002
2547.730469 0.057593
2547.544922 0.066097
2546.899414 0.060237
2546.721680 0.068765
2546.069336 0.062881
2545.897461 0.053573
2545.238281 0.070836
2545.074219 0.068740
2544.407227 0.060198
2544.250000 0.061587
2543.576172 0.063724
2543.425781 0.055329
2542.745117 0.076983
2542.600586 0.072272
2541.913086 0.075197
2541.776367 0.066015
2541.082031 0.053953
2540.951172 0.071355
2540.250000 0.064552
2540.126953 0.069558
2539.417969 0.060117
2539.301758 0.072221
2538.585938 0.064524
2538.476563 0.054379
2537.752930 0.060974
2537.651367 0.068630
2536.920898 0.064495
2536.826172 0.069508
2536.087891 0.057414
2536.000000 0.068605
2535.254883 0.062700
2535.174805 0.069483
2534.421875 0.067101
2534.348633 0.063236
2533.587891 0.069734
2533.522461 0.059663
2532.754883 0.065306
2532.696289 0.056981
2531.920898 0.063526
2531.870117 0.068543
2531.086914 0.059984
2531.042969 0.072091
2530.252930 0.069672
2530.216797 0.079197
2529.418945 0.062602
2529.389648 0.065837
2528.583984 0.062588
2528.562500 0.064046
2527.749023 0.080201
2527.735352 0.072039
2526.914063 0.074015
2526.908203 0.063134
2526.081055 0.062546
2526.079102 0.083571
2525.253906 0.070459
2525.244141 0.060444
2524.425781 0.078368
2524.409180 0.080874
2523.597656 0.070427
2523.573242 0.067531
2522.769531 0.070184
2522.737305 0.074812
2521.941406 0.067507
2521.901367 0.061596
2521.113281 0.066606
2521.065430 0.066861
2520.285156 0.077249
2520.228516 0.067725
2519.456055 0.071909
2519.392578 0.082659
2518.627930 0.066570
2518.555664 0.071212
2517.798828 0.075432
2517.718750 0.072075
2516.969727 0.074531
2516.881836 0.072058
2516.140625 0.068308
2516.043945 0.071164
2515.311523 0.067408
2515.207031 0.069391
2514.481445 0.077151
2514.369141 0.060593
2513.651367 0.074477
2513.531250 0.073749
2512.822266 0.068258
2512.693359 0.060566
2511.992188 0.080654
2511.855469 0.067573
2511.162109 0.068233
2511.016602 0.068435
2510.332031 0.072651
2510.177734 0.078946
2509.500977 0.077066
2509.338867 0.069281
2508.670898 0.081481
2508.500000 0.075403
2507.839844 0.054015
2507.661133 0.071003
2507.008789 0.076139
2506.821289 0.079751
2506.177734 0.075240
2505.982422 0.074476
2505.346680 0.067261
2505.142578 0.079715
2504.515625 0.080521
2504.302734 0.077069
2503.683594 0.076083
2503.461914 0.072674
2502.852539 0.069877
2502.622070 0.070031
2502.020508 0.073402
2501.781250 0.074391
2501.188477 0.072504
2500.940430 0.076999
2500.356445 0.071607
2500.099609 0.076982
2499.524414 0.071594
2499.258789 0.076964
2498.691406 0.081302
2498.416992 0.074323
2497.859375 0.072451
2497.576172 0.084797
2497.026367 0.075088
2496.734375 0.069046
2496.193359 0.081257
2495.892578 0.078642
2495.360352 0.071528
2495.050781 0.076003
2494.527344 0.082992
2494.208008 0.083846
2493.694336 0.075915
2493.365234 0.081207
2492.860352 0.085610
2492.523438 0.082062
2492.027344 0.082064
2491.680664 0.062841
2491.193359 0.089107
2490.836914 0.073298
2490.359375 0.080270
2489.994141 0.068047
2489.525391 0.068790
2489.150391 0.072392
2488.691406 0.082003
2488.306641 0.086328
2487.856445 0.087278
2487.462891 0.072359
2487.022461 0.087262
2486.619141 0.088031
2486.187500 0.082839
2485.775391 0.072326
2485.352539 0.072251
2484.930664 0.073180
2484.517578 0.085451
2484.085938 0.079261
2483.682617 0.087197
2483.241211 0.071405
2482.846680 0.085420
2482.396484 0.082707
2482.011719 0.076599
2481.550781 0.088780
2481.175781 0.077465
2480.706055 0.088760
2480.339844 0.081851
2479.860352 0.088739
2479.503906 0.080076
2479.014648 0.069583
2478.667969 0.071263
2478.168945 0.086959
2477.832031 0.083565
2477.322266 0.087808
2476.995117 0.087947
2476.476563 0.087788
2476.158203 0.081775
2475.629883 0.092982
2475.322266 0.083518
2474.783203 0.077322
2474.485352 0.078229
2473.936523 0.071224
2473.647461 0.073820
2473.088867 0.086839
2472.810547 0.087865
2472.242188 0.075532
2471.973633 0.080821
2471.394531 0.075514
2471.135742 0.073779
2470.546875 0.088514
2470.297852 0.093084
2469.698242 0.085890
2469.459961 0.089555
2468.850586 0.071125
2468.622070 0.087783
2468.001953 0.085850
2467.784180 0.087766
2467.153320 0.081496
2466.946289 0.079852
2466.304688 0.080610
2466.107422 0.083347
2465.456055 0.073658
2465.268555 0.078068
2464.607422 0.078840
2464.429688 0.083316
2463.757813 0.080553
2463.590820 0.082423
2462.908203 0.088328
2462.751953 0.077148
2462.058594 0.088308
2461.913086 0.085022
2461.208984 0.086556
2461.073242 0.075366
2460.358398 0.088266
2460.233398 0.087618
2459.508789 0.084785
2459.394531 0.081470
2458.658203 0.077846
2458.554688 0.087585
2457.807617 0.077827
2457.713867 0.088445
2456.956055 0.088184
2456.874023 0.083175
2456.105469 0.080384
2456.033203 0.084034
2455.253906 0.088142
2455.193359 0.081393
2454.402344 0.083802
2454.352539 0.077878
2453.550781 0.078600
2453.511719 0.086611
2452.699219 0.069083
2452.670898 0.085720
2451.846680 0.082016
2451.829102 0.074335
2450.995117 0.078544
2450.988281 0.084814
2450.146484 0.076800
2450.142578 0.068188
2449.304688 0.073331
2449.290039 0.080412
2448.462891 0.083664
2448.436523 0.075153
2447.621094 0.081255
2447.583984 0.071572
2446.779297 0.082113
2446.730469 0.075003
2445.937500 0.079477
2445.876953 0.072400
2445.094727 0.086448
2445.023438 0.075830
2444.251953 0.077701
2444.169922 0.068920
2443.409180 0.076814
2443.315430 0.073210
2442.566406 0.057599
2442.460938 0.071470
2441.723633 0.070677
2441.606445 0.075758
2440.879883 0.078515
2440.751953 0.081765
2440.037109 0.070650
2439.897461 0.072280
2439.193359 0.077613
2439.041992 0.058498
2438.349609 0.075854
2438.186523 0.078266
2437.505859 0.074096
2437.331055 0.068789
2436.662109 0.088899
2436.475586 0.078229
2435.817383 0.089753
2435.619141 0.076491
2434.973633 0.074925
2434.763672 0.063584
2434.128906 0.073169
2433.907227 0.067864
2433.284180 0.087089
2433.050781 0.071284
2432.439453 0.080978
2432.194336 0.066115
2431.593750 0.075739
2431.336914 0.075542
2430.749023 0.073113
2430.479492 0.079815
2429.903320 0.093985
2429.622070 0.069499
2429.058594 0.077436
2428.764648 0.079776
2428.212891 0.078291
2427.907227 0.072897
2427.367188 0.073927
2427.048828 0.081453
2426.520508 0.068696
2426.191406 0.068576
2425.674805 0.088679
2425.333008 0.061703
2424.828125 0.073016
2424.473633 0.068543
2423.982422 0.079085
2423.615234 0.083945
2423.135742 0.067774
2422.755859 0.070222
2422.289063 0.068630
2421.897461 0.067637
2421.441406 0.079040
2421.038086 0.053925
2420.594727 0.081630
2420.177734 0.082152
2419.747070 0.081614
2419.318359 0.076999
2418.900391 0.078994
2418.458008 0.064150
2418.052734 0.066829
2417.597656 0.063280
2417.205078 0.069419
2416.737305 0.069249
2416.356445 0.074611
2415.876953 0.071796
2415.508789 0.070260
2415.015625 0.073488
2414.660156 0.081520
2414.155273 0.071762
2413.812500 0.080638
2413.293945 0.063203
2412.963867 0.075421
2412.115234 0.072806
2411.266602 0.081458
2410.416992 0.083175
2409.568359 0.073630
2408.718750 0.073616
2407.869141 0.066675
2407.019531 0.071856
2406.169922 0.075305
2405.319336 0.075290
2404.469727 0.074410
2403.619141 0.074396
2402.768555 0.073517
2401.917969 0.066585
2401.066406 0.078676
2400.215820 0.073474
2399.364258 0.076053
2398.513672 0.070854
2397.662109 0.073432
2396.810547 0.075145
2395.958008 0.068222
2395.106445 0.082023
2394.253906 0.076828
2393.402344 0.085444
2392.549805 0.077661
2391.697266 0.075920
2390.843750 0.081081
2389.991211 0.081065
2389.137695 0.077601
2388.284180 0.082758
2387.430664 0.073261
2386.577148 0.077555
2385.723633 0.073233
2384.869141 0.071496
2384.015625 0.072343
2383.161133 0.084384
2382.306641 0.070593
2381.452148 0.077465
2380.597656 0.074868
2379.742188 0.086039
2378.886719 0.081721
2378.032227 0.074825
2377.176758 0.069651
2376.320313 0.082533
2375.464844 0.079079
2374.609375 0.084219
2373.752930 0.072174
2372.896484 0.091918
2372.040039 0.081594
2371.183594 0.086730
2370.326172 0.075552
2369.469727 0.088413
2368.612305 0.087537
2367.754883 0.069501
2366.897461 0.078924
2366.040039 0.075478
2365.182617 0.084896
2364.324219 0.083165
2363.465820 0.078863
2362.607422 0.074562
2361.749023 0.075404
2360.890625 0.078816
2360.031250 0.080514
2359.172852 0.081354
2358.313477 0.080482
2357.454102 0.076186
2356.594727 0.077027
2355.735352 0.063321
2354.875000 0.081274
2354.015625 0.077837
2353.155273 0.078677
2352.294922 0.085502
2351.434570 0.084630
2350.573242 0.084613
2349.712891 0.082888
2348.851563 0.064930
2347.990234 0.082855
2347.128906 0.083693
2346.267578 0.076846
2345.406250 0.085367
2344.543945 0.083643
2343.681641 0.094720
2342.819336 0.086170
2341.957031 0.079329
2341.094727 0.085283
2340.232422 0.081003
2339.369141 0.086102
2338.505859 0.082675
2337.642578 0.079250
2336.779297 0.087755
2335.916016 0.085182
2335.051758 0.080907
2334.188477 0.081742
2333.324219 0.087685
2332.459961 0.087668
2331.595703 0.085098
2330.730469 0.094440
2329.866211 0.086765
2329.000977 0.091851
2328.135742 0.087581
2327.270508 0.091814
2326.405273 0.090946
2325.540039 0.087529
2324.673828 0.090060
2323.807617 0.087494
2322.941406 0.076436
2322.075195 0.095102
2321.208984 0.082348
2320.341797 0.080634
2319.475586 0.080618
2318.608398 0.087390
2317.741211 0.084828
2316.874023 0.083963
2316.005859 0.092425
2315.138672 0.087320
2314.270508 0.079675
2313.402344 0.069490
2312.534180 0.091505
2311.666016 0.086404
2310.797852 0.087233
2309.928711 0.082135
2309.059570 0.086352
2308.190430 0.091413
2307.321289 0.087164
2306.452148 0.079532
2305.582031 0.087129
2304.712891 0.087112
2303.842773 0.081175
2302.972656 0.086231
2302.102539 0.097202
2301.231445 0.089577
2300.361328 0.092939
2299.490234 0.098833
2298.619141 0.097969
2297.748047 0.086128
2296.876953 0.085267
2296.004883 0.096222
2295.133789 0.085232
2294.261719 0.084372
2293.389648 0.086885
2292.517578 0.084338
2291.645508 0.090223
2290.772461 0.083461
2289.899414 0.091030
2289.027344 0.075843
2288.153320 0.096891
2287.280273 0.085079
2286.407227 0.099379
2285.533203 0.096833
2284.660156 0.085027
2283.786133 0.081644
2282.911133 0.084993
2282.037109 0.094231
2281.163086 0.099259
2280.288086 0.082419
2279.413086 0.090811
2278.538086 0.091633
2277.663086 0.086572
2276.787109 0.092436
2275.912109 0.093258
2275.036133 0.076439
2274.160156 0.092381
2273.284180 0.081446
2272.408203 0.088985
2271.531250 0.088967
2270.655273 0.096502
2269.778320 0.096482
2268.901367 0.093946
2268.024414 0.086380
2267.146484 0.101455
2266.269531 0.098919
2265.391602 0.083813
2264.513672 0.093852
2263.635742 0.086292
2262.757813 0.089626
2261.878906 0.082070
2261.000000 0.083728
2260.122070 0.080363
2259.243164 0.098759
2258.363281 0.084514
2257.484375 0.086170
2256.604492 0.107900
2255.725586 0.097843
2254.845703 0.107856
2253.965820 0.091116
2253.084961 0.091933
2252.205078 0.096093
2251.324219 0.096909
2250.443359 0.093548
2249.562500 0.073487
2248.681641 0.091840
2247.800781 0.090987
2246.918945 0.085961
2246.037109 0.102631
2245.155273 0.091765
2244.273438 0.100921
2243.391602 0.073382
2242.509766 0.094211
2241.626953 0.095025
2240.744141 0.110007
2239.861328 0.089154
2238.978516 0.106630
2238.094727 0.101611
2237.211914 0.084936
2236.328125 0.085751
2235.444336 0.089895
2234.560547 0.084052
2233.675781 0.088195
2232.791992 0.098159
2231.907227 0.090654
2231.022461 0.088972
2230.137695 0.101424
2229.252930 0.088936
2228.368164 0.090580
2227.482422 0.098870
2226.596680 0.093865
2225.710938 0.103812
2224.825195 0.100470
2223.938477 0.106260
2223.052734 0.103748
2222.166016 0.089620
2221.279297 0.097069
2220.392578 0.098708
2219.505859 0.097858
2218.618164 0.110275
2217.731445 0.096989
2216.843750 0.099456
2215.956055 0.101093
2215.068359 0.090302
2214.179688 0.085314
2213.291016 0.109312
2212.403320 0.107633
2211.514648 0.097678
2210.625977 0.104279
2209.736328 0.095983
2208.847656 0.090172
2207.958008 0.100079
2207.068359 0.091789
2206.178711 0.094251
2205.289063 0.100844
2204.398438 0.105782
2203.507813 0.108239
2202.618164 0.091695
2201.727539 0.088372
2200.835938 0.096612
2199.945313 0.100720
2199.053711 0.087492
2198.162109 0.097377
2197.270508 0.094882
2196.378906 0.099812
2195.487305 0.098966
2194.594727 0.103069
2193.703125 0.099750
2192.810547 0.093960
2191.917969 0.100533
2191.024414 0.088154
2190.131836 0.098844
2189.238281 0.094706
2188.344727 0.093040
2187.451172 0.103722
2186.557617 0.088886
2185.664063 0.100388
2184.769531 0.092963
2183.875000 0.098701
2182.980469 0.104437
2182.085938 0.084683
2181.191406 0.097818
2180.295898 0.101907
2179.400391 0.106815
2178.504883 0.089542
2177.609375 0.108414
2176.713867 0.109213
2175.817383 0.092770
2174.921875 0.103422
2174.025391 0.104221
2173.128906 0.094354
2172.231445 0.097615
2171.334961 0.106616
2170.437500 0.109054
2169.540039 0.089357
2168.642578 0.096715
2167.745117 0.091778
2166.847656 0.086843
2165.949219 0.099112
2165.050781 0.091721
2164.152344 0.091701
2163.253906 0.098231
2162.354492 0.099029
2161.456055 0.103100
2160.556641 0.097352
2159.657227 0.107964
2158.757813 0.100582
2157.858398 0.102196
2156.958008 0.102992
2156.057617 0.106240
2155.157227 0.095596
2154.256836 0.084140
2153.356445 0.107807
2152.456055 0.116766
2151.554688 0.103680
2150.653320 0.107739
2149.751953 0.101188
2148.850586 0.107694
2147.948242 0.108487
2147.045898 0.108465
2146.144531 0.109257
2145.242188 0.109235
2144.338867 0.101062
2143.436523 0.100226
2142.533203 0.100205
2141.629883 0.111587
2140.726563 0.109935
2139.823242 0.102584
2138.919922 0.113959
2138.015625 0.117190
2137.111328 0.119606
2136.207031 0.102498
2135.302734 0.125249
2134.398438 0.121157
2133.493164 0.128449
2132.588867 0.120294
2131.683594 0.134896
2130.778320 0.129993
2129.872070 0.116156
2128.966797 0.119381
2128.060547 0.133970
2127.154297 0.141248
2126.248047 0.121740
2125.341797 0.133074
2124.434570 0.128179
2123.527344 0.132207
2122.620117 0.123259
2121.712891 0.132152
2120.805664 0.142661
2119.897461 0.123992
2118.990234 0.128827
2118.082031 0.132040
2117.173828 0.114195
2116.265625 0.128746
2115.356445 0.123052
2114.447266 0.127882
2113.539063 0.117335
2112.628906 0.116501
2111.719727 0.106770
2110.810547 0.107557
2109.900391 0.106725
2108.990234 0.112361
2108.080078 0.100215
2107.169922 0.101809
2106.258789 0.117137
2105.348633 0.113881
2104.437500 0.106590
2103.526367 0.112219
2102.615234 0.099280
2101.703125 0.107329
2100.791992 0.118602
2099.879883 0.122610
2098.967773 0.104035
2098.055664 0.117720
2097.142578 0.108021
2096.230469 0.114446
2095.317383 0.115228
2094.404297 0.101508
2093.490234 0.109541
2092.577148 0.124012
2091.663086 0.116740
2090.750000 0.117520
2089.835938 0.116690
2088.920898 0.107010
2088.006836 0.127098
2087.091797 0.105356
2086.177734 0.103726
2085.262695 0.129429
2084.346680 0.126186
2083.431641 0.127766
2082.515625 0.126132
2081.600586 0.116467
2080.684570 0.111624
2079.767578 0.123643
2078.851563 0.117195
2077.934570 0.114762
2077.017578 0.117145
2076.100586 0.114713
2075.183594 0.117897
2074.266602 0.116268
2073.348633 0.117846
2072.430664 0.109005
2071.512695 0.116193
2070.594727 0.108958
2069.676758 0.120949
2068.757813 0.124928
2067.838867 0.114492
2066.919922 0.120071
2066.000977 0.111242
2065.082031 0.115219
2064.162109 0.121594
2063.242188 0.116769
2062.322266 0.115145
2061.402344 0.125513
2060.481445 0.115895
2059.561523 0.105481
2058.640625 0.122236
2057.719727 0.117417
2056.798828 0.107010
2055.876953 0.129343
2054.956055 0.128517
2054.034180 0.139662
2053.112305 0.114099
2052.189453 0.126041
2051.267578 0.116443
2050.344727 0.114026
2049.421875 0.112407
2048.499023 0.125135
2047.576172 0.126702
2046.652344 0.123488
2045.729492 0.122664
2044.805664 0.105915
2043.881836 0.119427
2042.957031 0.123381
2042.033203 0.135292
2041.108398 0.122532
2040.183594 0.123301
2039.258789 0.129637
2038.333984 0.128814
2037.408203 0.122426
2036.483398 0.123194
2035.557617 0.132703
2034.630859 0.117580
2033.705078 0.115965
2032.778320 0.111970
2031.852539 0.126236
2030.925781 0.105667
2030.818359 0.121446
2029.999023 0.127913
2029.892578 0.117452
2029.071289 0.128686
2028.965820 0.128534
2028.144531 0.111191
2028.040039 0.126127
2027.216797 0.120701
2027.113281 0.124513
2026.289063 0.134972
2026.186523 0.129243
2025.361328 0.123836
2025.260742 0.137935
2024.432617 0.122227
2024.333008 0.132357
2023.503906 0.128555
2023.406250 0.137875
2022.576172 0.131707
2022.479492 0.127547
2021.647461 0.128511
2021.551758 0.132271
2020.717773 0.131662
2020.624023 0.126699
2019.789063 0.127675
2019.696289 0.131422
2018.859375 0.130031
2018.768555 0.137725
2017.929688 0.124460
2017.840820 0.144026
2017.000000 0.123646
2016.913086 0.130544
2016.070313 0.123625
2015.984375 0.135262
2015.139648 0.125188
2015.055664 0.121788
2014.209961 0.132297
2014.126953 0.130459
2013.279297 0.129898
2013.198242 0.128849
2012.348633 0.117997
2012.269531 0.131983
2011.416992 0.127478
2011.340820 0.143016
2010.486328 0.126664
2010.411133 0.120865
2009.554688 0.124268
2009.482422 0.131896
2008.623047 0.136117
2008.552734 0.138974
2007.691406 0.131346
2007.623047 0.131838
2006.759766 0.126577
2006.692383 0.126284
2005.827148 0.132092
2005.762695 0.122311
2004.894531 0.116252
2004.833008 0.131752
2003.961914 0.127302
2003.902344 0.126201
2003.029297 0.117003
2002.971680 0.134059
2002.096680 0.127258
2002.041016 0.124569
2001.163086 0.128026
2001.110352 0.125330
2000.229492 0.135115
2000.178711 0.131607
1999.295898 0.131932
1999.248047 0.133942
1998.362305 0.144547
1998.316406 0.131549
1997.427734 0.124778
1997.384766 0.137821
1996.494141 0.122388
1996.453125 0.131491
1995.559570 0.134208
1995.521484 0.137760
1994.625000 0.146814
1994.589844 0.147961
1993.689453 0.131794
1993.657227 0.149502
1992.754883 0.136505
1992.724609 0.133736
1991.819336 0.141215
1991.792969 0.125841
1990.883789 0.131725
1990.860352 0.136036
1989.948242 0.134856
1989.926758 0.130503
1989.012695 0.145083
1988.994141 0.141478
1988.076172 0.124560
1988.061523 0.139089
1987.139648 0.130056
1987.127930 0.131202
1986.203125 0.141854
1986.194336 0.142955
1985.266602 0.141041
1985.260742 0.124076
1984.330078 0.129200
1984.327148 0.142106
1983.392578 0.134691
1983.392578 0.126376
1982.458984 0.129154
1982.455078 0.137335
1981.524414 0.133856
1981.517578 0.144366
1980.589844 0.137768
1980.580078 0.152178
1979.655273 0.129086
1979.641602 0.135675
1978.720703 0.121193
1978.703125 0.145054
1977.786133 0.136122
1977.765625 0.137183
1976.850586 0.136097
1976.826172 0.137152
1975.915039 0.151804
1975.887695 0.142607
1974.979492 0.131331
1974.948242 0.127691
1974.043945 0.150178
1974.009766 0.130796
1973.108398 0.131284
1973.070313 0.129983
1972.172852 0.135191
1972.130859 0.133086
1971.236328 0.140668
1971.190430 0.140101
1970.299805 0.139071
1970.250000 0.133809
1969.363281 0.139832
1969.310547 0.138474
1968.426758 0.139022
1968.370117 0.141571
1967.490234 0.133500
1967.428711 0.143886
1966.553711 0.142898
1966.488281 0.137599
1965.616211 0.150722
1965.546875 0.132879
1964.678711 0.133428
1964.605469 0.152386
1963.741211 0.140467
1963.664063 0.134382
1962.803711 0.145934
1962.722656 0.136696
1961.866211 0.153752
1961.780273 0.135103
1960.928711 0.145882
1960.837891 0.155373
1959.990234 0.141935
1959.895508 0.150655
1959.051758 0.158374
1958.953125 0.141256
1958.113281 0.141100
1958.010742 0.146686
1957.174805 0.138723
1957.067383 0.143533
1956.236328 0.142616
1956.124023 0.146620
1955.296875 0.145724
1955.180664 0.147367
1954.357422 0.147265
1954.237305 0.141098
1953.418945 0.135491
1953.292969 0.144963
1952.479492 0.145646
1952.349609 0.158177
1951.539063 0.142488
1951.405273 0.162816
1950.599609 0.143245
1950.460938 0.154212
1949.660156 0.148697
1949.515625 0.135489
1948.719727 0.135368
1948.571289 0.146358
1947.779297 0.140038
1947.625977 0.143990
1946.838867 0.146270
1946.680664 0.143179
1945.898438 0.145461
1945.735352 0.140813
1944.957031 0.144653
1944.789063 0.146226
1944.016602 0.152444
1943.842773 0.137639
1943.075195 0.140692
1942.896484 0.150048
1942.133789 0.143793
1941.950195 0.132137
1941.192383 0.142985
1941.003906 0.163191
1940.250977 0.152333
1940.056641 0.142177
1939.308594 0.153868
1939.110352 0.155350
1938.366211 0.156963
1938.163086 0.154538
1937.424805 0.159277
1937.215820 0.153727
1936.482422 0.156906
1936.267578 0.136615
1935.539063 0.130341
1935.319336 0.141241
1934.596680 0.138901
1934.372070 0.162157
1933.654297 0.141216
1933.422852 0.150485
1932.710938 0.158352
1932.474609 0.133390
1931.767578 0.132585
1931.526367 0.147316
1930.824219 0.137240
1930.577148 0.148058
1929.880859 0.144231
1929.627930 0.152674
1928.936523 0.156677
1928.678711 0.161162
1927.993164 0.140282
1927.728516 0.158027
1927.048828 0.151165
1926.779297 0.147149
1926.104492 0.156590
1925.829102 0.149438
1925.160156 0.151888
1924.878906 0.149404
1924.215820 0.158090
1923.928711 0.157110
1923.270508 0.156504
1922.977539 0.156301
1922.326172 0.163481
1922.026367 0.155491
1921.380859 0.161116
1921.075195 0.148495
1920.435547 0.156417
1920.124023 0.157740
1919.490234 0.154054
1919.172852 0.147655
1918.543945 0.165694
1918.220703 0.167716
1917.598633 0.161775
1917.268555 0.156087
1916.652344 0.146970
1916.316406 0.139828
1915.706055 0.160938
1915.364258 0.145203
1914.759766 0.153912
1914.411133 0.154436
1913.813477 0.132122
1913.458984 0.148225
1912.866211 0.162402
1912.505859 0.156681
1911.919922 0.146834
1911.552734 0.162047
1910.972656 0.158458
1910.598633 0.155838
1910.025391 0.160758
1909.645508 0.158116
1909.078125 0.155293
1908.691406 0.167334
1908.129883 0.148278
1907.737305 0.150334
1907.182617 0.156012
1906.782227 0.158779
1906.234375 0.155983
1905.828125 0.155660
1905.286133 0.152074
1904.873047 0.151772
1904.337891 0.164458
1903.917969 0.151737
1903.389648 0.143486
1902.962891 0.166334
1902.440430 0.151214
1902.006836 0.157827
1901.492188 0.153511
1901.051758 0.164718
1900.542969 0.161234
1900.095703 0.162371
1899.593750 0.164304
1899.139648 0.150794
1898.644531 0.165048
1898.183594 0.148452
1897.695313 0.170441
1897.226563 0.169180
1896.745117 0.155692
1896.269531 0.159916
1895.794922 0.160309
1895.312500 0.157573
1894.844727 0.161828
1894.355469 0.144472
1893.894531 0.152507
1893.398438 0.165183
1892.944336 0.167959
1892.440430 0.159000
1891.994141 0.165606
1891.482422 0.149748
1891.042969 0.159385
1890.524414 0.181192
1890.091797 0.166317
1889.566406 0.165031
1889.140625 0.157778
1888.607422 0.170364
1888.189453 0.164708
1887.648438 0.158049
1887.238281 0.163131
1886.689453 0.167984
1886.286133 0.170057
1885.730469 0.159510
1885.334961 0.159205
1884.770508 0.172507
1884.382813 0.167675
1883.811523 0.176299
1883.430664 0.167643
1882.851563 0.147904
1882.477539 0.173790
1881.891602 0.167024
1881.525391 0.159085
1880.930664 0.163921
1880.572266 0.156738
1879.970703 0.170009
1879.619141 0.155937
1879.009766 0.153892
1878.666016 0.165169
1878.048828 0.156152
1877.712891 0.145074
1877.086914 0.174483
1876.759766 0.146590
1876.125977 0.163731
1875.805664 0.153504
1875.164063 0.159868
1874.852539 0.151933
1874.202148 0.171302
1873.898438 0.163470
1873.240234 0.152148
1872.943359 0.158043
1872.277344 0.158227
1871.989258 0.174199
1871.315430 0.165068
1871.035156 0.161836
1870.352539 0.161210
1870.080078 0.155641
1869.389648 0.163464
1869.125000 0.161774
1868.425781 0.156552
1868.169922 0.173297
1867.462891 0.160333
1867.214844 0.169413
1866.499023 0.151136
1866.258789 0.177080
1865.535156 0.163311
1865.303711 0.170119
1864.570313 0.167850
1864.347656 0.158542
1863.606445 0.166285
1863.391602 0.166206
1862.641602 0.167772
1862.435547 0.161559
1861.676758 0.173832
1861.479492 0.163835
1860.711914 0.180723
1860.522461 0.153973
1859.746094 0.166079
1859.565430 0.153937
1858.781250 0.176810
1858.608398 0.178281
1857.815430 0.156024
1857.651367 0.168337
1856.849609 0.169826
1856.694336 0.167536
1855.882813 0.152123
1855.736328 0.169019
1854.916992 0.168225
1854.779297 0.168979
1853.950195 0.168192
1853.821289 0.163612
1852.983398 0.171232
1852.863281 0.173464
1852.015625 0.160451
1851.905273 0.157450
1851.048828 0.174236
1850.946289 0.169580
1850.081055 0.164226
1849.988281 0.168020
1849.113281 0.171100
1849.029297 0.174061
1848.145508 0.177204
1848.070313 0.166420
1847.176758 0.175636
1847.111328 0.173219
1846.208008 0.164100
1846.151367 0.172418
1845.239258 0.161768
1845.192383 0.173896
1844.270508 0.163270
1844.232422 0.183724
1843.301758 0.170902
1843.272461 0.177609
1842.332031 0.170103
1842.312500 0.185155
1841.362305 0.176965
1841.352539 0.179801
1840.392578 0.170803
1840.391602 0.175207
1839.430664 0.170770
1839.422852 0.162275
1838.470703 0.176862
1838.452148 0.189528
1837.508789 0.175297
1837.481445 0.183420
1836.547852 0.179855
1836.510742 0.175041
1835.586914 0.175229
1835.540039 0.178029
1834.625000 0.185906
1834.568359 0.191620
1833.663086 0.183575
1833.597656 0.192331
1832.701172 0.182010
1832.625000 0.189257
1831.739258 0.180446
1831.653320 0.178616
1830.777344 0.182704
1830.681641 0.183114
1829.814453 0.196426
1829.708984 0.179288
1828.851563 0.179577
1828.736328 0.184539
1827.888672 0.185654
1827.763672 0.176934
1826.925781 0.188673
1826.790039 0.179159
1825.962891 0.178708
1825.817383 0.195743
1824.999023 0.172565
1824.843750 0.186629
1824.035156 0.163370
1823.869141 0.190361
1823.071289 0.189290
1822.895508 0.184274
1822.107422 0.176280
1821.920898 0.172149
1821.143555 0.172431
1820.947266 0.190979
1820.178711 0.181551
1819.971680 0.179613
1819.214844 0.188379
1818.997070 0.156935
1818.250000 0.172330
1818.021484 0.166704
1817.285156 0.161623
1817.046875 0.174205
1816.319336 0.179122
1816.070313 0.177179
1815.354492 0.175277
1815.094727 0.167337
1814.388672 0.167623
1814.119141 0.175586
1813.422852 0.180541
1813.142578 0.177051
1812.457031 0.183552
1812.166016 0.182280
1811.491211 0.190369
1811.188477 0.182236
1810.525391 0.172822
1810.211914 0.169394
1809.558594 0.178116
1809.234375 0.183654
1808.591797 0.198629
1808.256836 0.169312
1807.625000 0.175764
1807.279297 0.187326
1806.658203 0.189422
1806.300781 0.187281
1805.690430 0.189385
1805.322266 0.187236
1804.723633 0.191629
1804.343750 0.165389
1803.755859 0.183228
1803.365234 0.177374
1802.788086 0.196115
1802.386719 0.184845
1801.820313 0.205196
1801.407227 0.196069
1800.851563 0.202116
1800.427734 0.193017
1799.883789 0.195239
1799.448242 0.187714
1798.915039 0.183048
1798.467773 0.185416
1797.946289 0.186809
1797.488281 0.205634
1796.977539 0.183735
1796.507813 0.185326
1796.007813 0.198122
1795.527344 0.173279
1795.039063 0.186699
1794.545898 0.188235
1794.069336 0.191974
1793.564453 0.186690
1793.099609 0.173728
1792.583008 0.185895
1792.129883 0.172177
1791.601563 0.189596
1791.160156 0.180485
1790.620117 0.176813
1790.189453 0.191064
1789.637695 0.183511
1789.218750 0.199364
1788.655273 0.185713
1788.248047 0.187957
1787.672852 0.185667
1787.277344 0.194739
1786.690430 0.205082
1786.306641 0.181064
1785.707031 0.186324
1785.334961 0.199964
1784.723633 0.204233
1784.364258 0.212041
1783.740234 0.195956
1783.392578 0.193071
1782.756836 0.195908
1782.420898 0.194546
1781.772461 0.180161
1781.448242 0.196022
1780.788086 0.198801
1780.476563 0.192199
1779.803711 0.175589
1779.503906 0.203509
1778.819336 0.197956
1778.531250 0.195149
1777.833984 0.186705
1777.558594 0.214772
1776.848633 0.200845
1776.585938 0.195071
1775.863281 0.203781
1775.612305 0.192008
1774.877930 0.211193
1774.638672 0.204819
1773.891602 0.193235
1773.666016 0.204022
1772.905273 0.207359
1772.691406 0.194160
1771.918945 0.204325
1771.717773 0.197143
1770.931641 0.219760
1770.744141 0.202038
1769.945313 0.186494
1769.769531 0.189317
1768.958008 0.219672
1768.794922 0.213860
1767.970703 0.209817
1767.820313 0.200398
1766.982422 0.200720
1766.845703 0.213009
1765.995117 0.215014
1765.870117 0.207744
1765.006836 0.200640
1764.894531 0.196526
1764.018555 0.222470
1763.919922 0.200198
1763.029297 0.220917
1762.944336 0.195684
1762.041016 0.215596
1761.967773 0.206793
1761.051758 0.211785
1760.992188 0.205998
1760.062500 0.206468
1760.015625 0.191077
1759.072266 0.215467
1759.039063 0.216301
1758.083008 0.220696
1758.062500 0.206587
1757.092773 0.212368
1757.085938 0.212479
1756.108398 0.213832
1756.101563 0.173803
1755.131836 0.200992
1755.111328 0.204947
1754.154297 0.220520
1754.120117 0.212319
1753.176758 0.206178
1753.128906 0.204102
1752.198242 0.210651
1751.220703 0.194813
1750.242188 0.214327
1749.263672 0.208269
1748.285156 0.221758
1747.306641 0.212694
1746.327148 0.202883
1745.348633 0.220122
1744.369141 0.200548
1743.389648 0.211773
1742.409180 0.210228
1741.429688 0.204181
1740.449219 0.212395
1739.468750 0.228860
1738.488281 0.231815
1737.507813 0.217517
1736.526367 0.218973
1735.544922 0.212931
1734.563477 0.213638
1733.582031 0.224087
1732.600586 0.225540
1731.618164 0.206017
1730.636719 0.199983
1729.654297 0.238134
1728.671875 0.207389
1727.688477 0.225312
1726.706055 0.220777
1725.722656 0.222977
1724.739258 0.216947
1723.755859 0.228122
1722.771484 0.214615
1721.788086 0.223544
1720.803711 0.239196
1719.819336 0.220464
1718.834961 0.198003
1717.850586 0.214398
1716.865234 0.222570
1715.879883 0.225512
1714.894531 0.232185
1713.909180 0.232885
1712.923828 0.232837
1711.937500 0.232044
1710.951172 0.229759
1709.964844 0.231949
1708.978516 0.231902
1707.991211 0.225891
1707.004883 0.234044
1706.017578 0.233996
1705.030273 0.245869
1704.042969 0.247309
1703.054688 0.234598
1702.066406 0.240507
1701.078125 0.233758
1700.089844 0.238920
1699.101563 0.227709
1698.113281 0.244031
1697.124023 0.241749
1696.134766 0.238725
1695.145508 0.245368
1694.155273 0.242344
1693.166016 0.229660
1692.175781 0.230356
1691.185547 0.242939
1690.195313 0.257002
1689.205078 0.246552
1688.213867 0.233137
1687.222656 0.232347
1686.231445 0.256049
1685.240234 0.253770
1684.249023 0.238139
1683.256836 0.257375
1682.264648 0.243974
1681.272461 0.246148
1680.280273 0.254251
1679.287109 0.261610
1678.294922 0.260075
1677.301758 0.269652
1676.308594 0.279225
1675.315430 0.256212
1674.321289 0.262822
1673.327148 0.252405
1672.333008 0.248653
1671.338867 0.275238
1670.344727 0.262606
1669.349609 0.265510
1668.355469 0.255843
1667.360352 0.267619
1666.365234 0.252781
1665.369141 0.263074
1664.374023 0.268192
1663.377930 0.268875
1662.381836 0.259219
1661.384766 0.247352
1660.388672 0.245824
1659.391602 0.254630
1658.395508 0.264908
1657.397461 0.275182
1656.400391 0.275863
1655.403320 0.257369
1654.405273 0.258791
1653.407227 0.281589
1652.409180 0.274161
1651.411133 0.254946
1650.412109 0.274047
1649.413086 0.297559
1648.414063 0.274670
1647.415039 0.300381
1646.416016 0.284125
1645.416016 0.299520
1644.416016 0.291365
1643.416016 0.272178
1642.416016 0.296392
1641.415039 0.295595
1640.415039 0.285977
1639.414063 0.306498
1638.413086 0.293207
1637.411133 0.286533
1636.410156 0.318059
1635.408203 0.306243
1634.406250 0.293697
1633.404297 0.287763
1632.402344 0.286969
1631.399414 0.308923
1630.396484 0.304457
1629.393555 0.297792
1628.390625 0.306530
1627.387695 0.307933
1626.383789 0.318131
1625.379883 0.301208
1624.375977 0.301878
1623.372070 0.317932
1622.367188 0.320063
1621.362305 0.327318
1620.357422 0.326518
1619.352539 0.323522
1618.347656 0.325650
1617.341797 0.329240
1616.335938 0.330634
1615.330078 0.339341
1614.324219 0.353162
1613.318359 0.347971
1612.311523 0.362516
1611.304688 0.358056
1610.297852 0.360903
1609.291016 0.365941
1608.283203 0.353449
1607.275391 0.331472
1606.267578 0.337972
1605.259766 0.354687
1604.251953 0.347316
1603.243164 0.363292
1602.234375 0.370509
1601.225586 0.363140
1600.216797 0.352128
1599.207031 0.362987
1598.198242 0.370198
1597.188477 0.376678
1596.178711 0.387525
1595.167969 0.372878
1594.158203 0.367703
1593.147461 0.362530
1592.136719 0.371187
1591.125977 0.354373
1590.114258 0.371031
1589.103516 0.368771
1588.091797 0.374511
1587.080078 0.359164
1586.067383 0.357635
1585.055664 0.351745
1584.042969 0.353124
1583.030273 0.347965
1582.017578 0.371133
1581.003906 0.368150
1579.991211 0.347019
1578.977539 0.349849
1577.963867 0.357032
1576.949219 0.349701
1575.935547 0.365585
1574.920898 0.337950
1573.906250 0.346579
1572.891602 0.326933
1571.876953 0.355130
1570.861328 0.336940
1569.845703 0.347735
1568.830078 0.346937
1567.814453 0.337450
1566.797852 0.340998
1565.782227 0.323554
1564.765625 0.327104
1563.749023 0.334994
1562.731445 0.342156
1561.714844 0.323280
1560.697266 0.328996
1559.679688 0.314468
1558.662109 0.324520
1557.643555 0.315057
1556.625000 0.312100
1555.607422 0.314923
1554.587891 0.319912
1553.569336 0.314068
1552.549805 0.314001
1551.531250 0.312491
1550.511719 0.298715
1549.491211 0.311637
1548.471680 0.325274
1547.451172 0.302851
1546.430664 0.299182
1545.410156 0.294073
1544.389648 0.309143
1543.368164 0.311959
1542.346680 0.308291
1541.325195 0.311106
1540.303711 0.301680
1539.282227 0.300896
1538.259766 0.290756
1537.237305 0.298609
1536.214844 0.292071
1535.191406 0.304236
1534.168945 0.303452
1533.145508 0.308419
1532.122070 0.299728
1531.098633 0.286729
1530.074219 0.299600
1529.050781 0.288043
1528.026367 0.300908
1527.000977 0.303716
1525.976563 0.311547
1524.951172 0.302151
1523.926758 0.299933
1522.901367 0.299869
1521.875000 0.302674
1520.849609 0.311931
1519.823242 0.303261
1518.796875 0.323266
1517.770508 0.317464
1516.743164 0.306649
1515.716797 0.327356
1514.689453 0.307950
1513.662109 0.305020
1512.634766 0.337883
1511.606445 0.319203
1510.578125 0.340601
1509.549805 0.325504
1508.521484 0.324004
1507.493164 0.316783
1506.463867 0.313856
1505.434570 0.335946
1504.405273 0.301572
1503.375977 0.317940
1502.345703 0.332872
1501.315430 0.326373
1500.285156 0.342011
1499.254883 0.329802
1498.223633 0.312602
1497.193359 0.323952
1496.162109 0.336723
1495.130859 0.321672
1494.098633 0.325169
1493.067383 0.301572
1492.035156 0.300081
1491.002930 0.316407
1489.969727 0.306364
1488.937500 0.300599
1487.904297 0.298398
1486.871094 0.300469
1485.837891 0.313218
1484.803711 0.334501
1483.770508 0.300275
1482.736328 0.327243
1481.702148 0.307969
1480.666992 0.300791
1479.632813 0.317078
1478.597656 0.304926
1477.562500 0.309834
1476.527344 0.288453
1475.491211 0.307569
1474.455078 0.312474
1473.418945 0.307436
1472.382813 0.318727
1471.346680 0.316529
1470.309570 0.300140
1469.272461 0.306460
1468.235352 0.303556
1467.198242 0.309163
1466.160156 0.313350
1465.122070 0.316117
1464.083984 0.303293
1463.045898 0.306061
1462.006836 0.325119
1460.968750 0.305928
1459.929688 0.323562
1458.889648 0.302964
1457.850586 0.313513
1456.810547 0.335379
1455.771484 0.335306
1454.730469 0.317552
1453.690430 0.328797
1452.649414 0.330846
1451.609375 0.320172
1450.568359 0.320102
1449.526367 0.322858
1448.485352 0.343978
1447.443359 0.343903
1446.401367 0.341004
1445.359375 0.320459
1444.316406 0.324624
1443.274414 0.352069
1442.231445 0.337179
1441.188477 0.343453
1440.144531 0.342672
1439.101563 0.342598
1438.057617 0.346047
1437.013672 0.350903
1435.968750 0.352940
1434.924805 0.364132
1433.879883 0.368981
1432.834961 0.387205
1431.790039 0.387824
1430.744141 0.392665
1429.698242 0.405946
1428.653320 0.385459
1427.606445 0.399439
1426.560547 0.397945
1425.513672 0.390829
1424.466797 0.410421
1423.419922 0.385037
1422.373047 0.401109
1421.325195 0.379249
1420.277344 0.370038
1419.229492 0.401547
1418.181641 0.407073
1417.132813 0.363479
1416.084961 0.386550
1415.036133 0.372437
1413.986328 0.381471
1412.937500 0.379985
1411.887695 0.398125
1410.837891 0.372109
1409.788086 0.393046
1408.738281 0.394360
1407.687500 0.383068
1406.636719 0.392786
1405.585938 0.385699
1404.534180 0.372317
1403.483398 0.373635
1402.431641 0.377749
1401.379883 0.350390
1400.327148 0.380380
1399.275391 0.357226
1398.222656 0.367631
1397.169922 0.382224
1396.117188 0.370263
1395.063477 0.379261
1394.009766 0.351944
1392.956055 0.352564
1391.902344 0.371332
1390.848633 0.362875
1389.793945 0.366981
1388.739258 0.371783
1387.684570 0.383556
1386.628906 0.379287
1385.574219 0.390356
1384.518555 0.397936
1383.462891 0.388790
1382.406250 0.397063
1381.350586 0.387921
1380.293945 0.410812
1379.237305 0.403064
1378.179688 0.387662
1377.123047 0.395926
1376.065430 0.411143
1375.007813 0.400619
1373.949219 0.405397
1372.891602 0.379585
1371.833008 0.380195
1370.774414 0.415550
1369.715820 0.375163
1368.656250 0.402863
1367.596680 0.376384
1366.537109 0.390186
1365.477539 0.382464
1364.417969 0.361560
1363.357422 0.387150
1362.296875 0.378740
1361.236328 0.362011
1360.174805 0.371637
1359.113281 0.363929
1358.052734 0.370778
1356.990234 0.363074
1355.928711 0.372691
1354.866211 0.366374
1353.803711 0.366292
1352.741211 0.362057
1351.678711 0.354362
1350.615234 0.347364
1349.551758 0.350053
1348.488281 0.343750
1347.424805 0.361652
1346.360352 0.360879
1345.295898 0.360107
1344.231445 0.357953
1343.166992 0.362018
1342.101563 0.357793
1341.036133 0.357022
1339.970703 0.380416
1338.905273 0.382401
1337.838867 0.356781
1336.772461 0.369120
1335.706055 0.382833
1334.639648 0.395850
1333.572266 0.379213
1332.504883 0.382575
1331.437500 0.382488
1330.370117 0.381713
1329.302734 0.392649
1328.234375 0.384985
1327.166016 0.385587
1326.096680 0.388942
1325.028320 0.386789
1323.958984 0.382573
1322.889648 0.372856
1321.820313 0.372084
1320.750000 0.369250
1319.679688 0.382228
1318.609375 0.349838
1317.539063 0.365564
1316.468750 0.369603
1315.397461 0.377075
1314.326172 0.372182
1313.254883 0.363173
1312.182617 0.347305
1311.142578 0.352029
1311.110352 0.360803
1310.069336 0.355380
1310.038086 0.362861
1308.997070 0.343639
1308.965820 0.375827
1307.923828 0.352476
1307.892578 0.373017
1306.851563 0.359937
1306.820313 0.353068
1305.778320 0.351630
1305.747070 0.372198
1304.704102 0.363200
1304.672852 0.352942
1303.630859 0.373395
1303.599609 0.360416
1302.557617 0.373310
1302.525391 0.350760
1301.483398 0.360214
1301.451172 0.360286
1300.409180 0.364924
1300.376953 0.367755
1299.334961 0.361419
1299.301758 0.372482
1298.259766 0.369549
1298.227539 0.368307
1297.185547 0.359886
1297.152344 0.370978
1296.110352 0.369543
1296.076172 0.365277
1295.035156 0.371529
1295.000977 0.366561
1293.959961 0.374882
1293.924805 0.380836
1292.883789 0.361135
1292.848633 0.369812
1291.808594 0.376798
1291.772461 0.376562
1290.732422 0.389720
1290.695313 0.378526
1289.656250 0.395118
1289.618164 0.376390
1288.580078 0.395047
1288.541016 0.383817
1287.502930 0.394292
1287.463867 0.389191
1286.426758 0.406518
1286.386719 0.385007
1285.349609 0.411909
1285.308594 0.363079
1284.272461 0.370855
1284.230469 0.354808
1283.195313 0.387176
1283.152344 0.388836
1282.118164 0.389154
1282.073242 0.390111
1281.040039 0.369287
1280.994141 0.372975
1279.961914 0.380140
1279.915039 0.380389
1278.883789 0.383482
1278.835938 0.387798
1277.805664 0.382729
1277.755859 0.370675
1276.727539 0.369017
1276.676758 0.352197
1275.648438 0.382589
1275.596680 0.358927
1274.569336 0.375701
1274.515625 0.379272
1273.490234 0.375632
1273.435547 0.383951
1272.411133 0.381697
1272.354492 0.378418
1271.332031 0.401390
1271.273438 0.379011
1270.251953 0.375424
1270.191406 0.384367
1269.171875 0.361050
1269.110352 0.389039
1268.091797 0.358259
1268.028320 0.371270
1267.011719 0.381346
1266.946289 0.365746
1265.931641 0.376509
1265.864258 0.373139
1264.850586 0.367591
1264.781250 0.354026
1263.769531 0.370245
1263.698242 0.374326
1262.688477 0.374940
1262.615234 0.390540
1261.607422 0.363985
1261.532227 0.385697
1260.526367 0.366638
1260.448242 0.374067
1259.444336 0.368611
1259.364258 0.371945
1258.362305 0.388261
1258.280273 0.347430
1257.280273 0.390229
1257.196289 0.368381
1256.198242 0.377242
1256.111328 0.365583
1255.115234 0.362221
1255.026367 0.372958
1254.033203 0.357397
1253.941406 0.376939
1252.950195 0.375672
1252.856445 0.362619
1251.867188 0.347076
1251.770508 0.347627
1250.783203 0.374174
1250.684570 0.361096
1249.700195 0.349662
1249.598633 0.342725
1248.616211 0.347560
1248.511719 0.363638
1247.532227 0.349531
1247.425781 0.362200
1246.448242 0.382038
1246.338867 0.353994
1245.364258 0.381288
1245.250977 0.349175
1244.279297 0.363580
1244.164063 0.370743
1243.195313 0.365546
1243.076172 0.346307
1242.110352 0.347170
1241.988281 0.355694
1241.024414 0.379646
1240.900391 0.361696
1239.939453 0.380930
1239.812500 0.369047
1238.853516 0.376792
1238.723633 0.385856
1237.768555 0.362493
1237.634766 0.351986
1236.682617 0.375973
1236.544922 0.367439
1235.595703 0.357615
1235.456055 0.363302
1234.509766 0.356871
1234.366211 0.355116
1233.422852 0.360189
1233.276367 0.345584
1232.336914 0.354028
1232.186523 0.361699
1231.250000 0.365467
1231.095703 0.362290
1230.162109 0.372841
1230.004883 0.354786
1229.075195 0.352474
1228.914063 0.345262
1227.987305 0.352408
1227.823242 0.347879
1226.899414 0.357075
1226.731445 0.353190
1225.811523 0.344836
1225.639648 0.349064
1224.723633 0.356939
1224.547852 0.338877
1223.634766 0.346733
1223.456055 0.360352
1222.546875 0.366265
1222.363281 0.353533
1221.458008 0.338494
1221.270508 0.339313
1220.368164 0.356668
1220.177734 0.343945
1219.279297 0.364030
1219.084961 0.346556
1218.189453 0.345728
1217.991211 0.354548
1217.100586 0.379419
1216.897461 0.358501
1216.010742 0.365846
1215.803711 0.359762
1214.919922 0.366451
1214.708984 0.366401
1213.830078 0.390672
1213.614258 0.362954
1212.739258 0.391946
1212.519531 0.406548
1211.648438 0.387150
1211.424805 0.390329
1210.557617 0.419445
1210.329102 0.389565
1209.466797 0.386328
1209.234375 0.398875
1208.375977 0.398387
1208.138672 0.386026
1207.284180 0.409768
1207.041992 0.403386
1206.192383 0.398235
1205.946289 0.387857
1205.100586 0.414327
1204.849609 0.383070
1204.007813 0.396061
1203.752930 0.387675
1202.916016 0.377128
1202.655273 0.382219
1201.823242 0.393889
1201.558594 0.372744
1200.730469 0.378330
1200.460938 0.388742
1199.637695 0.385660
1199.362305 0.365197
1198.543945 0.379530
1198.264648 0.371140
1197.451172 0.362637
1197.166016 0.379090
1196.357422 0.381401
1196.067383 0.371635
1195.263672 0.382673
1194.968750 0.374225
1194.168945 0.370496
1193.870117 0.387522
1193.075195 0.384542
1192.770508 0.368695
1191.980469 0.379762
1191.670898 0.395367
1190.885742 0.386409
1190.570313 0.357820
1189.791016 0.381631
1189.470703 0.357735
1188.696289 0.386931
1188.370117 0.365672
1187.600586 0.347230
1187.269531 0.352219
1186.504883 0.365293
1186.167969 0.350131
1185.409180 0.361194
1185.067383 0.348712
1184.313477 0.349713
1183.965820 0.327925
1183.216797 0.345618
1182.864258 0.323841
1182.121094 0.328777
1181.761719 0.347128
1181.024414 0.340788
1180.659180 0.337703
1179.927734 0.353465
1179.556641 0.333619
1178.830078 0.322550
1178.454102 0.338876
1177.733398 0.324498
1177.351563 0.336795
1176.635742 0.329127
1176.248047 0.342049
1175.538086 0.346488
1175.144531 0.339968
1174.440430 0.326318
1174.040039 0.322559
1173.341797 0.330944
1172.936523 0.321816
1172.243164 0.323511
1171.832031 0.335728
1171.145508 0.334163
1170.727539 0.331652
1170.045898 0.326063
1169.622070 0.306272
1168.947266 0.315289
1168.517578 0.306865
1167.848633 0.312550
1167.412109 0.315443
1166.749023 0.314496
1166.306641 0.301396
1165.649414 0.302392
1165.200195 0.301989
1164.549805 0.305677
1164.093750 0.311892
1163.449219 0.308961
1162.987305 0.289877
1162.348633 0.300208
1161.880859 0.279172
1161.249023 0.300817
1160.773438 0.283757
1160.147461 0.284718
1159.666016 0.290997
1159.046875 0.298694
1158.558594 0.305541
1157.946289 0.305985
1157.451172 0.294178
1156.844727 0.276534
1156.342773 0.298091
1155.743164 0.289836
1155.234375 0.306648
1154.641602 0.289779
1154.125977 0.297284
1153.539063 0.290389
1153.017578 0.294559
1152.436523 0.309020
1151.908203 0.291835
1151.334961 0.297615
1150.798828 0.285134
1150.231445 0.290217
1149.689453 0.293684
1149.128906 0.295496
1148.579102 0.287648
1148.026367 0.297438
1147.468750 0.298844
1146.922852 0.305380
1146.358398 0.284860
1145.819336 0.321986
1145.248047 0.301349
1144.715820 0.303260
1144.136719 0.305911
1143.611328 0.318526
1143.025391 0.313119
1142.506836 0.324459
1141.914063 0.307749
1141.403320 0.306410
1140.801758 0.317600
1140.297852 0.311011
1139.689453 0.285109
1139.193359 0.318273
1138.577148 0.299590
1138.088867 0.302233
1137.464844 0.303484
1136.983398 0.308163
1136.351563 0.315970
1135.877930 0.298120
1135.239258 0.298711
1134.771484 0.309371
1134.125000 0.320442
1133.666016 0.309309
1133.011719 0.277429
1132.559570 0.296612
1131.897461 0.291890
1131.453125 0.313175
1130.783203 0.308325
1130.346680 0.277879
1129.668945 0.283168
1129.240234 0.305739
1128.553711 0.291678
1128.132813 0.291723
1127.439453 0.301503
1127.025391 0.296315
1126.324219 0.271749
1125.917969 0.308877
1125.208008 0.290806
1124.810547 0.301510
1124.092773 0.278868
1123.702148 0.280202
1122.976563 0.294619
1122.594727 0.292095
1121.859375 0.294547
1121.486328 0.282081
1120.743164 0.301722
1120.377930 0.280697
1119.625977 0.287817
1119.268555 0.280641
1118.508789 0.296965
1118.159180 0.297167
1117.391602 0.298868
1117.050781 0.280528
1116.273438 0.296162
1115.940430 0.282461
1115.155273 0.275035
1114.831055 0.279752
1114.037109 0.277599
1113.721680 0.291626
1112.918945 0.271612
1112.611328 0.284278
1111.799805 0.276148
1111.500977 0.284884
1110.680664 0.280681
1110.389648 0.272241
1109.561523 0.272727
1109.279297 0.270861
1108.441406 0.282515
1108.167969 0.252930
1107.321289 0.258799
1107.056641 0.262146
1106.201172 0.256109
1105.945313 0.269374
1105.081055 0.256046
1104.833984 0.273951
1103.959961 0.265829
1103.721680 0.265296
1102.838867 0.264451
1102.609375 0.260612
1101.717773 0.258481
1101.497070 0.266511
1100.595703 0.259074
1100.384766 0.259184
1099.473633 0.264911
1099.271484 0.260454
1098.351563 0.255668
1098.158203 0.261723
1097.229492 0.258882
1097.044922 0.241185
1096.106445 0.233919
1095.931641 0.261617
1094.983398 0.254824
1094.818359 0.235143
1093.860352 0.247557
1093.704102 0.243680
1092.737305 0.251424
1092.589844 0.240330
1091.613281 0.243507
1091.475586 0.240281
1090.489258 0.244756
1090.360352 0.251452
1089.364258 0.244041
1089.246094 0.242163
1088.240234 0.242672
1088.130859 0.242773
1087.115234 0.236727
1087.015625 0.239426
1085.989258 0.241898
1085.900391 0.265095
1084.864258 0.257525
1084.784180 0.249218
1083.738281 0.241125
1083.667969 0.247849
1082.612305 0.259357
1082.551758 0.241208
1081.486328 0.255374
1081.435547 0.242476
1080.359375 0.255311
1080.318359 0.247038
1079.232422 0.261122
1079.202148 0.250281
1078.105469 0.253226
1078.084961 0.265376
1076.977539 0.241418
1076.966797 0.253471
1075.849609 0.247881
1075.849609 0.248153
1074.731445 0.258906
1074.721680 0.269161
1073.613281 0.257537
1073.593750 0.251999
1072.495117 0.254866
1072.464844 0.263131
1071.376953 0.247292
1071.335938 0.239814
1070.257813 0.264996
1070.207031 0.261905
1069.138672 0.260997
1069.077148 0.268353
1068.019531 0.266859
1067.948242 0.255262
1066.900391 0.264833
1066.817383 0.256501
1065.781250 0.264779
1065.687500 0.271406
1064.661133 0.266695
1064.556641 0.282400
1063.541016 0.271894
1063.425781 0.269318
1062.419922 0.263959
1062.294922 0.279006
1061.299805 0.277691
1061.163086 0.289990
1060.178711 0.277634
1060.032227 0.282767
1059.057617 0.277576
1058.899414 0.282695
1057.936523 0.299170
1057.767578 0.305364
1056.815430 0.302388
1056.634766 0.292297
1055.693359 0.300358
1055.501953 0.291574
1054.571289 0.303575
1054.369141 0.296045
1053.449219 0.294335
1053.235352 0.301163
1052.327148 0.304760
1052.101563 0.278375
1051.204102 0.285039
1050.967773 0.284792
1050.081055 0.300049
1049.833984 0.279532
1048.958008 0.290817
1048.699219 0.281407
1047.834961 0.282898
1047.564453 0.289763
1046.710938 0.267781
1046.428711 0.274136
1045.586914 0.276890
1045.293945 0.268235
1044.462891 0.285341
1044.158203 0.277883
1043.338867 0.272850
1043.021484 0.265509
1042.213867 0.261018
1041.885742 0.282922
1041.089844 0.271429
1040.749023 0.277672
1039.964844 0.281181
1039.612305 0.276954
1038.838867 0.274585
1038.474609 0.271709
1037.713867 0.269953
1037.337891 0.267759
1036.587891 0.265976
1036.200195 0.268984
1035.461914 0.258733
1035.061523 0.279259
1034.335938 0.270438
1033.923828 0.260446
1033.209961 0.279525
1032.785156 0.277824
1032.083008 0.267714
1031.646484 0.260959
1030.956055 0.265700
1030.506836 0.271225
1029.829102 0.268908
1029.367188 0.260180
1028.701172 0.279945
1028.227539 0.267859
1027.574219 0.266839
1027.087891 0.258112
1026.446289 0.275915
1025.947266 0.249014
1025.318359 0.282379
1024.806641 0.260559
1024.189453 0.261456
1023.666016 0.267585
1023.061523 0.262053
1022.524414 0.280409
1021.932617 0.275033
1021.382813 0.265515
1020.803711 0.270415
1020.241211 0.265447
1019.674805 0.265798
1019.098633 0.266667
1018.544922 0.261183
1017.957031 0.263379
1017.415039 0.287828
1016.813477 0.259448
1016.285156 0.281257
1015.670898 0.251014
1015.155273 0.271435
1014.527344 0.261245
1014.024414 0.279838
1013.383789 0.275330
1012.894531 0.243994
1012.240234 0.286193
1011.763672 0.263458
1011.095703 0.271331
1010.631836 0.265354
1009.951172 0.267404
1009.500977 0.300412
1008.806641 0.271191
1008.369141 0.273694
1007.662109 0.249919
1007.237305 0.272987
1006.516602 0.268481
1006.105469 0.299573
1005.371094 0.255569
1004.972656 0.278720
1004.224609 0.276046
1003.840820 0.268269
1003.079102 0.274049
1002.708008 0.264965
1001.932617 0.277186
1001.575195 0.257767
1000.785156 0.257870
1000.441406 0.267451
999.638672 0.261010
999.307617 0.284918
998.491211 0.280817
998.173828 0.278369
997.342773 0.264079
997.040039 0.278311
996.195313 0.271059
995.906250 0.258145
995.046875 0.256895
994.771484 0.257443
993.898438 0.251064
993.636719 0.269707
992.749023 0.257401
992.501953 0.261223
991.599609 0.261815
991.367188 0.260520
990.450195 0.262387
990.231445 0.272128
989.300781 0.269356
989.095703 0.252637
987.959961 0.254527
986.824219 0.259653
985.687500 0.279667
984.550781 0.278314
983.414063 0.263372
982.277344 0.277549
981.139648 0.270375
980.001953 0.270318
978.864258 0.301296
977.726563 0.270850
976.587891 0.279195
975.449219 0.284951
974.310547 0.276493
973.171875 0.275788
972.032227 0.269272
970.893555 0.271152
969.752930 0.272386
968.613281 0.263293
967.473633 0.272915
966.333008 0.272857
965.192383 0.298596
964.050781 0.266939
962.910156 0.268816
961.768555 0.286805
960.626953 0.282233
959.485352 0.284106
958.342773 0.281469
957.200195 0.267242
956.057617 0.265254
954.915039 0.281290
953.771484 0.259993
952.628906 0.266371
951.485352 0.267601
950.340820 0.268187
949.197266 0.277132
948.052734 0.271930
946.908203 0.259660
945.762695 0.269244
944.618164 0.249270
943.472656 0.263990
942.327148 0.253017
941.181641 0.273508
940.035156 0.270882
938.888672 0.274033
937.742188 0.269483
936.595703 0.273274
935.448242 0.261671
934.301758 0.271233
933.154297 0.252584
932.005859 0.274963
930.858398 0.283875
929.709961 0.275486
928.561523 0.279270
927.413086 0.270244
926.263672 0.304120
925.114258 0.294453
923.964844 0.308469
922.815430 0.308403
921.665039 0.308337
920.514648 0.303154
919.364258 0.302449
918.213867 0.305581
917.062500 0.283784
915.911133 0.299698
914.759766 0.300272
913.608398 0.298292
912.456055 0.306529
911.303711 0.296248
910.151367 0.292992
908.999023 0.291015
907.845703 0.290952
906.692383 0.304285
905.539063 0.295291
904.385742 0.300966
903.231445 0.323851
902.077148 0.314858
900.922852 0.292487
899.768555 0.336383
898.613281 0.333125
897.458008 0.306944
896.302734 0.320248
895.146484 0.339911
893.991211 0.339201
892.834961 0.338492
891.678711 0.349869
890.521484 0.347885
889.364258 0.363070
888.207031 0.376977
887.049805 0.401683
885.892578 0.404773
884.734375 0.418026
883.576172 0.423017
882.417969 0.397524
881.258789 0.405056
880.099609 0.389734
878.940430 0.380131
877.781250 0.376241
876.621094 0.385040
875.461914 0.366565
874.301758 0.361413
873.140625 0.336611
871.980469 0.327665
870.819336 0.318723
869.658203 0.331957
868.496094 0.330618
867.334961 0.330546
866.172852 0.324776
865.010742 0.320908
863.847656 0.330330
862.685547 0.326462
861.522461 0.340939
860.359375 0.326319
859.195313 0.339526
858.031250 0.326809
856.867188 0.337482
855.703125 0.326035
854.539063 0.361971
853.374023 0.328418
852.208984 0.366864
851.043945 0.345320
849.877930 0.342089
848.711914 0.323083
847.545898 0.343832
846.379883 0.322311
845.212891 0.329177
844.046875 0.333518
842.879883 0.344791
841.711914 0.361101
840.544922 0.371733
839.376953 0.370391
838.208008 0.384795
837.040039 0.408007
835.871094 0.467091
834.702148 0.521743
833.533203 0.563158
832.364258 0.668721
831.194336 0.774866
830.024414 0.883481
828.854492 0.964385
827.683594 1.000000
826.513672 0.963961
825.342773 0.890243
824.170898 0.770076
823.000000 0.725320
821.828125 0.649191
820.656250 0.598832
819.483398 0.531550
818.311523 0.474964
817.138672 0.425931
815.965820 0.436499
814.791992 0.388749
813.619141 0.384902
812.445313 0.370403
811.270508 0.364681
810.096680 0.362095
808.921875 0.349489
807.747070 0.338140
806.572266 0.326171
805.396484 0.324847
804.221680 0.333536
803.045898 0.319072
801.869141 0.335890
800.693359 0.325810
799.516602 0.321987
798.339844 0.332542
797.162109 0.328094
795.985352 0.328021
794.807617 0.311707
793.628906 0.320382
792.451172 0.322184
791.272461 0.326482
790.093750 0.328282
788.915039 0.345681
787.735352 0.347475
786.556641 0.358625
785.375977 0.343580
784.196289 0.336023
783.015625 0.325976
781.835938 0.332758
780.654297 0.321470
779.473633 0.315170
778.291992 0.317591
777.110352 0.320633
775.928711 0.295664
774.747070 0.295598
773.564453 0.289311
772.381836 0.299199
771.199219 0.299132
770.015625 0.290361
768.832031 0.293404
767.648438 0.288367
766.464844 0.298866
765.280273 0.299420
764.095703 0.318607
762.911133 0.338405
761.725586 0.348883
760.541016 0.371769
759.355469 0.376651
758.168945 0.398280
756.983398 0.404393
755.796875 0.409884
754.610352 0.425291
753.422852 0.399783
752.236328 0.399694
751.048828 0.370486
749.861328 0.385269
748.672852 0.348027
747.485352 0.360332
746.296875 0.350966
745.107422 0.347794
743.918945 0.338435
742.729492 0.324132
741.540039 0.304270
740.349609 0.321514
739.160156 0.313406
737.969727 0.313335
736.779297 0.315119
735.587891 0.322461
734.397461 0.299537
733.206055 0.307497
732.013672 0.317923
730.822266 0.312914
729.629883 0.310375
728.437500 0.307221
727.244141 0.296667
726.051758 0.308933
724.858398 0.311946
723.665039 0.313109
722.470703 0.292703
721.276367 0.319129
720.082031 0.316593
718.887695 0.311595
717.693359 0.316451
716.498047 0.305915
715.302734 0.310770
714.106445 0.311315
712.911133 0.304479
711.714844 0.305640
710.517578 0.311104
709.321289 0.307346
708.124023 0.318953
706.926758 0.321953
705.729492 0.323109
704.531250 0.330406
703.333008 0.324192
702.134766 0.334554
700.936523 0.324659
699.737305 0.338084
698.538086 0.316537
697.338867 0.326279
696.138672 0.334789
694.938477 0.309579
693.738281 0.328509
692.538086 0.330273
691.336914 0.339387
690.135742 0.345435
688.934570 0.349031
687.732422 0.345279
686.531250 0.345813
685.328125 0.334720
684.125977 0.346268
682.923828 0.337014
681.720703 0.333269
680.516602 0.345421
679.313477 0.346565
678.109375 0.344042
676.905273 0.333578
675.701172 0.335945
674.496094 0.345029
673.291992 0.360214
672.085938 0.366846
670.880859 0.367373
669.674805 0.359358
668.468750 0.357446
667.262695 0.354316
666.055664 0.350577
664.849609 0.372441
663.642578 0.343104
662.434570 0.333278
661.227539 0.335029
660.019531 0.358095
658.810547 0.330006
657.602539 0.334800
656.393555 0.323161
655.184570 0.335256
653.975586 0.326055
652.765625 0.326589
651.555664 0.350835
650.345703 0.332518
649.134766 0.331227
647.924805 0.325075
646.712891 0.341403
645.501953 0.337073
644.291016 0.332746
643.079102 0.318707
641.866211 0.307103
640.654297 0.334338
639.441406 0.322735
638.228516 0.320235
637.015625 0.323800
635.801758 0.331001
634.587891 0.324258
633.374023 0.308429
632.160156 0.324109
630.945313 0.321612
629.730469 0.346365
628.514648 0.311778
627.299805 0.318365
626.083984 0.340076
624.868164 0.332738
623.651367 0.331452
622.435547 0.333190
621.218750 0.317395
620.000977 0.342103
618.784180 0.332960
617.566406 0.343154
616.347656 0.325559
615.129883 0.339977
613.911133 0.319976
612.692383 0.345253
611.473633 0.332501
610.253906 0.336044
609.034180 0.336570
607.814453 0.338904
606.594727 0.348472
605.374023 0.315843
604.153320 0.321797
602.931641 0.325940
601.710938 0.323455
600.489258 0.328198
599.267578 0.319091
598.044922 0.324435
596.822266 0.317740
595.599609 0.318870
594.376953 0.325413
593.153320 0.330149
591.929688 0.335484
590.706055 0.318575
589.481445 0.310689
588.257813 0.302807
587.032227 0.338176
585.807617 0.332693
584.582031 0.330815
583.356445 0.326537
582.130859 0.319260
580.905273 0.322185
579.678711 0.329309
578.452148 0.321436
577.224609 0.333353
575.997070 0.344664
574.769531 0.324808
573.541992 0.352892
572.313477 0.327053
571.084961 0.328175
569.856445 0.323309
568.627930 0.339994
567.398438 0.327348
566.168945 0.339238
564.939453 0.324205
563.708984 0.318747
562.478516 0.322260
561.248047 0.323380
560.016602 0.321512
558.785156 0.338764
557.553711 0.326738
556.322266 0.323676
555.089844 0.315839
553.857422 0.316959
552.625000 0.325837
551.391602 0.323374
550.158203 0.317930
548.924805 0.332765
547.690430 0.328513
546.457031 0.315919
545.222656 0.328360
543.987305 0.303855
542.752930 0.317484
541.517578 0.340040
540.281250 0.323885
539.045898 0.331547
537.809570 0.327304
536.573242 0.345671
535.335938 0.321202
534.099609 0.344320
532.861328 0.341266
531.624023 0.334053
530.385742 0.331598
529.148438 0.346373
527.909180 0.351043
526.670898 0.356899
525.431641 0.331286
524.192383 0.337144
522.952148 0.324603
521.712891 0.345292
520.472656 0.355887
519.231445 0.353431
517.991211 0.353348
516.750000 0.352079
515.508789 0.368589
514.266602 0.357246
513.024414 0.355384
511.782227 0.367144
510.540039 0.366465
509.296875 0.350990
508.053711 0.376352
506.810547 0.355557
505.566406 0.370851
504.322266 0.369581
503.078125 0.362400
501.833008 0.351084
500.587891 0.371683
499.342773 0.389318
498.097656 0.378595
496.851563 0.377324
495.605469 0.373102
494.359375 0.380687
493.112305 0.382957
491.865234 0.373427
490.618164 0.382185
489.370117 0.375609
488.123047 0.364908
486.874023 0.374841
485.625977 0.417766
484.376953 0.395870
483.127930 0.419335
481.878906 0.408636
480.628906 0.413249
479.378906 0.429629
478.128906 0.425997
476.877930 0.410013
475.626953 0.422854
474.375977 0.452152
473.125000 0.431470
471.873047 0.457813
470.621094 0.461817
469.368164 0.490490
468.115234 0.488024
466.862305 0.517264
465.609375 0.523011
464.355469 0.532276
463.102539 0.574392
461.847656 0.610622
460.593750 0.660909
459.338867 0.738142
458.083984 0.767859
456.828125 0.849717
455.572266 0.841898
454.316406 0.904955
453.060547 0.839738
451.803711 0.802068
450.546875 0.781390
449.290039 0.681138
448.032227 0.638268
446.774414 0.604191
445.516602 0.571885
444.257813 0.546025
442.999023 0.509072
441.740234 0.526480
440.481445 0.502986
439.221680 0.491768
437.961914 0.498073
436.701172 0.510212
435.441406 0.501335
434.180664 0.529222
432.918945 0.538428
431.658203 0.540631
430.396484 0.533504
429.133789 0.549114
427.872070 0.532664
426.609375 0.527874
425.346680 0.512019
424.083008 0.524707
422.819336 0.546123
421.555664 0.541334
420.291016 0.552260
419.027344 0.557945
417.762695 0.564208
416.497070 0.607104
415.231445 0.591841
413.965820 0.610297
412.700195 0.641529
411.433594 0.662869
410.166992 0.677228
408.900391 0.704356
407.632813 0.705926
406.365234 0.720845
405.097656 0.749102
403.830078 0.772705
402.561523 0.764978
401.291992 0.804800
400.023438 0.785475
398.753906 0.812522
397.484375 0.833183
396.214844 0.850358
394.944336 0.868104
393.673828 0.896841
392.402344 0.915146
391.130859 0.920131
389.859375 0.931478
388.587891 0.960749
387.315430 0.958202
386.042969 0.986875
384.770508 0.998193
383.497070 1.000261
382.223633 1.019081
380.950195 1.019409
379.676758 1.005879
378.402344 1.013137
377.126953 0.997306
375.852539 1.017834
374.577148 1.051043
373.301758 1.003494
372.025391 0.996906
370.749023 0.996661
369.472656 0.986043
368.196289 0.990986
366.918945 0.978071
365.641602 0.974951
364.363281 0.986801
363.085938 0.958355
361.807617 0.990344
360.528320 0.990100
359.249023 0.957072
357.969727 0.959136
356.690430 0.979021
355.410156 0.964411
354.129883 0.978538
352.849609 0.931191
351.568359 0.963697
350.287109 0.946234
349.005859 0.952889
347.723633 0.909612
346.441406 0.903649
345.159180 0.916045
343.875977 0.896894
342.592773 0.902405
341.309570 0.852888
340.026367 0.838351
338.742188 0.853038
337.457031 0.835644
336.172852 0.773595
334.887695 0.764816
333.602539 0.745739
332.316406 0.737544
331.030273 0.738504
329.744141 0.731458
328.457031 0.707262
327.170898 0.696225
325.882813 0.699481
324.595703 0.694736
323.307617 0.700846
322.019531 0.685824
320.730469 0.692504
319.441406 0.680916
318.152344 0.673328
316.863281 0.683428
315.573242 0.686109
314.283203 0.684797
312.992188 0.678355
311.701172 0.678185
310.410156 0.696818
309.119141 0.708605
307.827148 0.729498
306.535156 0.711666
305.242188 0.750762
303.950195 0.728949
302.656250 0.756074
301.363281 0.749628
300.069336 0.796066
298.775391 0.797571
297.480469 0.795666
296.186523 0.818193
294.891602 0.832756
293.595703 0.841065
292.299805 0.840853
291.003906 0.891727
289.708008 0.917605
288.411133 0.954250
287.114258 0.982936
285.816406 1.014442
284.518555 1.053302
283.220703 1.125581
281.922852 1.185357
280.624023 1.218479
279.325195 1.250451
278.025391 1.303356
276.725586 1.348875
275.425781 1.383618
274.125977 1.416081
272.825195 1.527712
271.523438 1.560687
270.222656 1.638870
268.920898 1.710232
267.619141 1.775906
266.316406 1.844936
265.013672 1.923531
263.710938 1.969338
262.408203 1.992544
261.104492 2.074990
259.799805 2.081795
258.496094 2.143871
257.191406 2.191254
255.886719 2.165890
254.581055 2.283691
253.275391 2.284234
251.969727 2.269004
250.663086 2.317419
249.356445 2.344413
248.049805 2.406854
246.742188 2.437188
245.434570 2.454003
244.126953 2.481495
242.818359 2.461178
241.509766 2.468416
240.201172 2.491386
238.891602 2.493555
237.582031 2.453593
236.271484 2.493394
234.961914 2.438855
233.650391 2.368066
232.339844 2.368577
231.028320 2.380870
229.716797 2.349408
228.405273 2.387490
227.092773 2.361088
225.779297 2.326292
224.466797 2.316166
223.153320 2.272997
221.839844 2.277448
220.525391 2.236550
219.210938 2.214142
217.896484 2.178876
216.581055 2.177751
215.265625 2.135242
213.950195 2.018392
212.633789 2.051406
211.317383 1.973755
210.000977 1.969889
208.683594 1.923577
207.366211 1.891807
206.048828 1.876799
204.730469 1.852312
203.412109 1.815562
202.092773 1.712453
200.773438 1.726505
199.454102 1.709886
198.133789 1.697734
196.814453 1.648255
195.493164 1.621641
194.172852 1.580004
192.851563 1.587941
191.529297 1.543551
190.208008 1.599351
188.885742 1.588361
187.562500 1.552347
186.239258 1.573069
184.916016 1.537634
183.592773 1.535562
182.268555 1.579051
180.944336 1.568082
179.619141 1.590992
178.293945 1.591128
176.968750 1.632335
175.643555 1.646886
174.317383 1.713574
172.990234 1.719221
171.664063 1.758686
170.336914 1.767090
169.008789 1.814833
167.680664 1.873630
166.352539 1.885318
165.024414 1.888141
163.695313 1.921960
162.366211 1.945247
161.036133 1.962434
159.706055 2.027734
158.375977 2.046549
157.044922 2.088019
155.713867 2.105148
154.382813 2.145475
153.050781 2.254275
151.718750 2.310553
150.385742 2.331468
149.053711 2.380520
147.719727 2.473689
146.386719 2.469166
145.052734 2.534685
143.717773 2.588590
142.383789 2.649631
141.048828 2.639002
139.712891 2.695589
138.377930 2.785190
137.041016 2.791600
135.705078 2.795253
134.368164 2.835775
133.031250 2.842715
131.693359 2.778147
130.355469 2.816440
129.017578 2.826675
127.678711 2.802830
126.339844 2.757571
125.000977 2.706842
123.661133 2.726428
122.321289 2.677381
120.980469 2.597076
119.639648 2.590886
118.298828 2.597315
116.957031 2.611417
115.615234 2.576170
114.273438 2.584788
112.930664 2.624086
111.587891 2.662266
110.244141 2.627588
108.900391 2.626326
107.556641 2.538036
106.211914 2.455812
104.867188 2.338622
103.522461 2.167899
102.176758 1.979226
100.831055 1.727797
99.484375 1.496723
98.137695 1.271239
