3198.529297 0.007130
3197.824219 0.008657
3197.119141 0.006110
3196.414063 0.004581
3195.708008 0.003054
3195.001953 0.007125
3194.296875 0.004579
3193.590820 0.006614
3192.884766 0.009156
3192.178711 0.004577
3191.472656 0.007627
3190.765625 0.006609
3190.059570 0.008642
3189.352539 0.005591
3188.646484 0.007623
3187.939453 0.006097
3187.232422 0.007112
3186.525391 0.008127
3185.818359 0.006602
3185.111328 0.007109
3184.404297 0.008631
3183.696289 0.006599
3182.989258 0.005583
3182.281250 0.006597
3181.573242 0.006596
3180.865234 0.007609
3180.157227 0.005072
3179.449219 0.008114
3178.741211 0.006085
3178.033203 0.006591
3177.324219 0.006590
3176.616211 0.007602
3175.907227 0.010135
3175.198242 0.008613
3174.489258 0.003039
3173.780273 0.007091
3173.071289 0.007090
3172.362305 0.006076
3171.652344 0.005569
3170.943359 0.008099
3170.233398 0.007591
3169.523438 0.007590
3168.814453 0.008095
3168.104492 0.009105
3167.394531 0.006575
3166.683594 0.007585
3165.973633 0.007078
3165.263672 0.010110
3164.552734 0.005560
3163.841797 0.004548
3163.130859 0.008590
3162.420898 0.007578
3161.709961 0.003031
3160.998047 0.006060
3160.287109 0.005554
3159.576172 0.006058
3158.864258 0.008581
3158.153320 0.007570
3157.441406 0.007065
3156.729492 0.007063
3156.017578 0.008576
3155.305664 0.007061
3154.593750 0.006051
3153.880859 0.009076
3153.168945 0.006049
3152.456055 0.006048
3151.744141 0.009575
3151.031250 0.007558
3150.318359 0.006549
3149.605469 0.008059
3148.892578 0.007051
3148.178711 0.004532
3147.465820 0.009062
3146.751953 0.007551
3146.039063 0.007046
3145.325195 0.008554
3144.611328 0.008553
3143.897461 0.007043
3143.183594 0.008550
3142.468750 0.007543
3141.754883 0.008547
3141.041016 0.005027
3140.326172 0.008042
3139.611328 0.007035
3138.896484 0.008039
3138.181641 0.009545
3137.466797 0.007534
3136.751953 0.006529
3136.037109 0.007532
3135.321289 0.006526
3134.605469 0.006525
3133.890625 0.007026
3133.174805 0.006523
3132.458984 0.006020
3131.743164 0.005016
3131.027344 0.005517
3130.310547 0.006017
3129.594727 0.008022
3128.877930 0.007519
3128.161133 0.007518
3127.445313 0.007517
3126.728516 0.007515
3126.010742 0.007013
3125.293945 0.006010
3124.577148 0.007011
3123.859375 0.007010
3123.142578 0.008010
3122.424805 0.003003
3121.707031 0.006506
3120.989258 0.005003
3120.271484 0.008504
3119.553711 0.007503
3118.835938 0.009002
3118.117188 0.009000
3117.399414 0.007499
3116.680664 0.008997
3115.961914 0.005497
3115.243164 0.007495
3114.524414 0.007494
3113.805664 0.007492
3113.086914 0.008989
3112.367188 0.006991
3111.648438 0.008986
3110.928711 0.009484
3110.208984 0.010980
3109.489258 0.007984
3108.769531 0.009479
3108.049805 0.008480
3107.329102 0.008478
3106.609375 0.009474
3105.888672 0.008974
3105.168945 0.010468
3104.448242 0.009968
3103.727539 0.008471
3103.006836 0.006477
3102.285156 0.008966
3101.564453 0.008467
3100.843750 0.007469
3100.122070 0.010455
3099.400391 0.008462
3098.678711 0.009456
3097.957031 0.008957
3097.235352 0.008458
3096.513672 0.012436
3095.791992 0.011439
3095.069336 0.007459
3094.346680 0.006961
3093.625000 0.009942
3092.902344 0.009443
3092.179688 0.008945
3091.457031 0.008446
3090.733398 0.005961
3090.010742 0.007947
3089.287109 0.006456
3088.564453 0.008937
3087.840820 0.010425
3087.117188 0.010423
3086.393555 0.010421
3085.669922 0.007938
3084.946289 0.009921
3084.221680 0.008432
3083.498047 0.007438
3082.773438 0.010908
3082.048828 0.010410
3081.324219 0.010408
3080.599609 0.012884
3079.875000 0.010900
3079.149414 0.009907
3078.424805 0.009410
3077.699219 0.007923
3076.974609 0.011387
3076.249023 0.009405
3075.523438 0.008414
3074.797852 0.009402
3074.071289 0.011874
3073.345703 0.009399
3072.619141 0.010386
3071.893555 0.009395
3071.166992 0.009394
3070.440430 0.012358
3069.713867 0.010379
3068.987305 0.010377
3068.259766 0.009881
3067.533203 0.009879
3066.805664 0.011359
3066.079102 0.007407
3065.351563 0.011355
3064.624023 0.009379
3063.896484 0.008884
3063.168945 0.012830
3062.440430 0.010361
3061.712891 0.008879
3060.984375 0.010357
3060.255859 0.007396
3059.527344 0.012818
3058.798828 0.009366
3058.070313 0.010350
3057.341797 0.009855
3056.613281 0.008868
3055.883789 0.008866
3055.154297 0.009850
3054.424805 0.012802
3053.695313 0.012308
3052.965820 0.012305
3052.236328 0.009843
3051.506836 0.012301
3050.776367 0.009347
3050.046875 0.012297
3049.316406 0.009344
3048.585938 0.010817
3047.855469 0.008849
3047.125000 0.012288
3046.393555 0.012777
3045.663086 0.013757
3044.931641 0.014737
3044.201172 0.011788
3043.469727 0.008348
3042.738281 0.009820
3042.006836 0.009818
3041.275391 0.010798
3040.542969 0.009814
3039.811523 0.010794
3039.079102 0.008830
3038.346680 0.009319
3037.614258 0.011278
3036.881836 0.012747
3036.149414 0.012745
3035.416992 0.011762
3034.683594 0.010780
3033.951172 0.013228
3033.217773 0.015675
3032.484375 0.012733
3031.750977 0.009793
3031.017578 0.010281
3030.284180 0.015174
3029.549805 0.011745
3028.816406 0.010275
3028.082031 0.015166
3027.347656 0.011739
3026.613281 0.012226
3025.878906 0.013691
3025.144531 0.012221
3024.410156 0.014174
3023.674805 0.013194
3022.939453 0.008795
3022.205078 0.013678
3021.469727 0.013187
3020.734375 0.015138
3019.999023 0.011229
3019.262695 0.011227
3018.527344 0.019034
3017.791016 0.014151
3017.054688 0.013173
3016.318359 0.012683
3015.582031 0.011705
3014.845703 0.013166
3014.109375 0.015113
3013.373047 0.015598
3012.635742 0.012671
3011.898438 0.016079
3011.161133 0.013153
3010.424805 0.015586
3009.686523 0.015097
3008.949219 0.012659
3008.211914 0.012657
3007.473633 0.012655
3006.736328 0.012652
3005.998047 0.018489
3005.259766 0.013621
3004.521484 0.014591
3003.782227 0.017506
3003.043945 0.015072
3002.305664 0.016527
3001.566406 0.017010
3000.827148 0.013606
3000.087891 0.016518
2999.348633 0.016515
2998.609375 0.014084
2997.870117 0.012624
2997.129883 0.018448
2996.389648 0.019415
2995.650391 0.016985
2994.910156 0.022804
2994.169922 0.021345
2993.429688 0.019886
2992.688477 0.017942
2991.948242 0.019878
2991.207031 0.023268
2990.465820 0.023264
2989.725586 0.021321
2988.983398 0.024224
2988.242188 0.019860
2987.500977 0.020825
2986.759766 0.022274
2986.017578 0.016944
2985.275391 0.022265
2984.533203 0.025165
2983.791016 0.023709
2983.048828 0.021769
2982.306641 0.025635
2981.563477 0.019827
2980.821289 0.024658
2980.078125 0.026104
2979.334961 0.024166
2978.591797 0.027060
2977.848633 0.023673
2977.105469 0.028016
2976.361328 0.026562
2975.618164 0.026557
2974.874023 0.031863
2974.129883 0.031857
2973.385742 0.033781
2972.641602 0.036188
2971.897461 0.032804
2971.152344 0.037139
2970.408203 0.035203
2969.663086 0.032786
2968.917969 0.037118
2968.172852 0.037593
2967.427734 0.046260
2966.682617 0.039988
2965.936523 0.044316
2965.191406 0.042381
2964.445313 0.045262
2963.699219 0.048623
2962.953125 0.042357
2962.207031 0.049086
2961.460938 0.046671
2960.713867 0.045701
2959.967773 0.049059
2959.220703 0.048088
2958.473633 0.055771
2957.726563 0.050473
2956.979492 0.059115
2956.232422 0.060545
2955.484375 0.058612
2954.737305 0.060042
2953.989258 0.054268
2953.241211 0.058579
2952.493164 0.058088
2951.745117 0.063356
2950.997070 0.059505
2950.248047 0.060934
2949.500000 0.052767
2948.750977 0.058992
2948.001953 0.059461
2947.252930 0.052737
2946.503906 0.061355
2945.754883 0.060385
2945.004883 0.062770
2944.255859 0.061800
2943.505859 0.056519
2942.755859 0.056509
2942.005859 0.058892
2941.255859 0.056487
2940.504883 0.065570
2939.754883 0.063644
2939.003906 0.067938
2938.252930 0.068403
2937.502930 0.066477
2936.750977 0.057858
2936.000000 0.062627
2935.249023 0.065483
2934.497070 0.062604
2933.746094 0.066414
2932.994141 0.061147
2932.242188 0.064001
2931.490234 0.058258
2930.738281 0.058725
2929.985352 0.062055
2929.233398 0.060611
2928.480469 0.055828
2927.727539 0.062019
2926.974609 0.059146
2926.221680 0.063427
2925.468750 0.052925
2924.715820 0.056728
2923.961914 0.061960
2923.208008 0.056230
2922.455078 0.059078
2921.701172 0.063354
2920.946289 0.057627
2920.192383 0.067139
2919.438477 0.059509
2918.683594 0.064734
2917.928711 0.066625
2917.173828 0.063757
2916.418945 0.063745
2915.664063 0.062782
2914.909180 0.059916
2914.153320 0.063709
2913.398438 0.063696
2912.642578 0.061308
2911.886719 0.062246
2911.130859 0.065560
2910.375000 0.068397
2909.619141 0.067909
2908.862305 0.063623
2908.105469 0.072630
2907.349609 0.061700
2906.592773 0.073077
2905.835938 0.069742
2905.078125 0.073049
2904.321289 0.069715
2903.563477 0.068754
2902.806641 0.066844
2902.048828 0.076311
2901.291016 0.071557
2900.533203 0.075808
2899.774414 0.080530
2899.016602 0.071042
2898.257813 0.071502
2897.500000 0.080484
2896.741211 0.070528
2895.982422 0.080453
2895.222656 0.074759
2894.463867 0.073326
2893.705078 0.070947
2892.945313 0.072352
2892.185547 0.073756
2891.425781 0.084141
2890.666016 0.072310
2889.906250 0.073713
2889.146484 0.067085
2888.385742 0.072740
2887.625000 0.074143
2886.864258 0.074129
2886.103516 0.075058
2885.342773 0.070324
2884.582031 0.072670
2883.821289 0.075015
2883.059570 0.072642
2882.297852 0.076872
2881.536133 0.071199
2880.774414 0.074485
2880.012695 0.086254
2879.250977 0.074457
2878.488281 0.086221
2877.726563 0.082907
2876.963867 0.081007
2876.201172 0.075812
2875.438477 0.074384
2874.674805 0.074841
2873.912109 0.072944
2873.149414 0.081399
2872.385742 0.079972
2871.622070 0.083249
2870.858398 0.083703
2870.094727 0.084157
2869.330078 0.081320
2868.566406 0.082244
2867.801758 0.080348
2867.038086 0.082212
2866.273438 0.080317
2865.508789 0.089694
2864.743164 0.084512
2863.978516 0.081679
2863.212891 0.082601
2862.448242 0.087747
2861.682617 0.084446
2860.916992 0.090996
2860.151367 0.083944
2859.384766 0.089085
2858.619141 0.090943
2857.852539 0.084832
2857.086914 0.086221
2856.320313 0.085736
2855.553711 0.086188
2854.786133 0.082424
2854.019531 0.088495
2853.251953 0.087073
2852.485352 0.081908
2851.717773 0.087039
2850.950195 0.089830
2850.182617 0.080924
2849.414063 0.082312
2848.646484 0.081828
2847.877930 0.089759
2847.110352 0.084133
2846.341797 0.082714
2845.573242 0.085502
2844.803711 0.089689
2844.035156 0.082666
2843.266602 0.081249
2842.497070 0.080766
2841.727539 0.085418
2840.958008 0.092401
2840.188477 0.086317
2839.418945 0.086767
2838.648438 0.084884
2837.878906 0.091396
2837.108398 0.092310
2836.337891 0.082970
2835.567383 0.092274
2834.795898 0.082471
2834.025391 0.077331
2833.254883 0.080576
2832.483398 0.084751
2831.711914 0.073561
2830.940430 0.085183
2830.168945 0.078186
2829.397461 0.079566
2828.625000 0.079550
2827.852539 0.077674
2827.081055 0.084169
2826.308594 0.079503
2825.536133 0.077163
2824.762695 0.080401
2823.990234 0.077133
2823.216797 0.079441
2822.444336 0.074780
2821.670898 0.073837
2820.897461 0.081715
2820.123047 0.073808
2819.349609 0.076578
2818.576172 0.077026
2817.801758 0.079795
2817.027344 0.079315
2816.252930 0.077445
2815.478516 0.079284
2814.704102 0.075096
2813.928711 0.078326
2813.154297 0.072286
2812.378906 0.070882
2811.603516 0.069942
2810.828125 0.075022
2810.052734 0.074081
2809.276367 0.070363
2808.500977 0.064332
2807.724609 0.070798
2806.948242 0.068933
2806.171875 0.068919
2805.395508 0.070293
2804.619141 0.067967
2803.841797 0.066567
2803.064453 0.067016
2802.288086 0.074396
2801.510742 0.069761
2800.733398 0.066052
2799.955078 0.066501
2799.177734 0.056330
2798.399414 0.064166
2797.621094 0.065538
2796.842773 0.066448
2796.064453 0.058592
2795.286133 0.061809
2794.507813 0.061797
2793.728516 0.053946
2792.950195 0.060389
2792.170898 0.054385
2791.391602 0.064052
2790.611328 0.064960
2789.832031 0.061723
2789.052734 0.063092
2788.272461 0.063540
2787.492188 0.061686
2786.711914 0.061674
2785.931641 0.061201
2785.151367 0.056588
2784.370117 0.052897
2783.588867 0.053346
2782.808594 0.055635
2782.027344 0.059761
2781.246094 0.051016
2780.463867 0.056061
2779.682617 0.054212
2778.900391 0.056038
2778.119141 0.053731
2777.336914 0.053720
2776.554688 0.055087
2775.771484 0.055076
2774.989258 0.055523
2774.206055 0.057347
2773.423828 0.048621
2772.640625 0.048153
2771.857422 0.057771
2771.074219 0.053634
2770.290039 0.048582
2769.506836 0.048114
2768.722656 0.055434
2767.938477 0.053133
2767.154297 0.052206
2766.370117 0.051738
2765.585938 0.047608
2764.800781 0.047141
2764.016602 0.052622
2763.231445 0.045292
2762.446289 0.050314
2761.661133 0.048017
2760.875000 0.047550
2760.089844 0.043427
2759.303711 0.050273
2758.518555 0.051177
2757.732422 0.052994
2756.945313 0.054811
2756.159180 0.049776
2755.373047 0.052049
2754.585938 0.049756
2753.798828 0.047464
2753.012695 0.045629
2752.224609 0.043339
2751.437500 0.049716
2750.650391 0.047882
2749.862305 0.051520
2749.074219 0.047863
2748.287109 0.048309
2747.499023 0.052400
2746.709961 0.050111
2745.921875 0.048735
2745.132813 0.052823
2744.344727 0.045983
2743.555664 0.048705
2742.766602 0.047785
2741.977539 0.051415
2741.187500 0.050950
2740.398438 0.054123
2739.608398 0.049565
2738.818359 0.049555
2738.028320 0.049545
2737.238281 0.049535
2736.448242 0.052706
2735.657227 0.051332
2734.866211 0.048142
2734.075195 0.056306
2733.284180 0.047669
2732.493164 0.045844
2731.702148 0.047649
2730.910156 0.053992
2730.119141 0.044908
2729.327148 0.049888
2728.535156 0.050785
2727.743164 0.045334
2726.950195 0.049858
2726.158203 0.051660
2725.365234 0.046213
2724.572266 0.043032
2723.779297 0.047100
2722.986328 0.043015
2722.193359 0.051607
2721.399414 0.045713
2720.606445 0.047514
2719.812500 0.046147
2719.018555 0.046137
2718.224609 0.042510
2717.430664 0.043858
2716.635742 0.044753
2715.840820 0.047907
2715.046875 0.043379
2714.251953 0.045629
2713.456055 0.045168
2712.661133 0.040643
2711.866211 0.044698
2711.070313 0.043786
2710.274414 0.043777
2709.478516 0.041963
2708.682617 0.041503
2707.886719 0.040593
2707.089844 0.041035
2706.293945 0.040576
2705.497070 0.038765
2704.700195 0.045517
2703.903320 0.046409
2703.105469 0.041894
2702.308594 0.042336
2701.510742 0.040526
2700.712891 0.043219
2699.915039 0.039159
2699.117188 0.046351
2698.319336 0.042742
2697.520508 0.040485
2696.722656 0.038228
2695.923828 0.044964
2695.125000 0.044505
2694.326172 0.044047
2693.526367 0.041791
2692.727539 0.039536
2691.927734 0.044469
2691.127930 0.044909
2690.328125 0.038165
2689.528320 0.040850
2688.728516 0.042637
2687.927734 0.043077
2687.126953 0.046208
2686.326172 0.042610
2685.525391 0.042153
2684.724609 0.041696
2683.923828 0.043032
2683.122070 0.050642
2682.321289 0.039430
2681.519531 0.046589
2680.717773 0.044340
2679.915039 0.046570
2679.113281 0.047008
2678.310547 0.042970
2677.508789 0.041171
2676.706055 0.046979
2675.903320 0.045627
2675.099609 0.039804
2674.296875 0.042478
2673.493164 0.043363
2672.690430 0.041120
2671.886719 0.043345
2671.083008 0.041996
2670.278320 0.046901
2669.474609 0.048231
2668.669922 0.039737
2667.865234 0.043300
2667.060547 0.039274
2666.255859 0.041051
2665.451172 0.036581
2664.646484 0.045940
2663.840820 0.037012
2663.035156 0.041909
2662.229492 0.042791
2661.423828 0.046348
2660.618164 0.044110
2659.811523 0.045883
2659.004883 0.040974
2658.199219 0.044528
2657.391602 0.041847
2656.584961 0.041839
2655.778320 0.037825
2655.033203 0.040575
2654.970703 0.039152
2654.227539 0.037454
2654.164063 0.041367
2653.421875 0.039231
2653.356445 0.045806
2652.616211 0.039671
2652.548828 0.044018
2651.810547 0.042784
2651.740234 0.044009
2651.004883 0.041886
2650.932617 0.039555
2650.198242 0.042770
2650.124023 0.043101
2649.392578 0.038754
2649.316406 0.040871
2648.585938 0.043202
2648.507813 0.042195
2647.779297 0.037406
2647.699219 0.040410
2646.972656 0.041852
2646.889648 0.041289
2646.166016 0.043626
2646.081055 0.039061
2645.359375 0.038277
2645.271484 0.039053
2644.552734 0.040496
2644.461914 0.043482
2643.745117 0.038710
2643.652344 0.038593
2642.938477 0.043152
2642.842773 0.043907
2642.130859 0.038253
2642.033203 0.047445
2641.323242 0.041804
2641.222656 0.041672
2640.515625 0.034683
2640.413086 0.043879
2639.708008 0.042235
2639.602539 0.041654
2638.899414 0.039561
2638.791992 0.043861
2638.091797 0.039110
2637.981445 0.042966
2637.283203 0.045325
2637.169922 0.043842
2636.475586 0.039986
2636.359375 0.039848
2635.666992 0.046198
2635.547852 0.039840
2634.858398 0.043526
2634.736328 0.045585
2634.049805 0.039078
2633.924805 0.040708
2633.241211 0.046175
2633.113281 0.039372
2632.431641 0.034626
2632.300781 0.043787
2631.623047 0.042166
2631.489258 0.043335
2630.813477 0.043046
2630.676758 0.042884
2630.003906 0.043039
2629.864258 0.043317
2629.194336 0.047912
2629.051758 0.039330
2628.384766 0.043025
2628.238281 0.047717
2627.575195 0.045235
2627.425781 0.048590
2626.765625 0.048331
2626.612305 0.043280
2625.955078 0.048323
2625.798828 0.045479
2625.145508 0.048315
2624.985352 0.045028
2624.334961 0.042103
2624.171875 0.043253
2623.524414 0.043425
2623.358398 0.050745
2622.713867 0.046962
2622.543945 0.044117
2621.903320 0.045182
2621.729492 0.045871
2621.092773 0.050047
2620.916016 0.037924
2620.281250 0.046938
2620.100586 0.050261
2619.469727 0.043831
2619.286133 0.047165
2618.659180 0.043824
2618.471680 0.044510
2617.847656 0.048243
2617.656250 0.049347
2617.036133 0.044694
2616.840820 0.052421
2616.224609 0.049554
2616.025391 0.051529
2615.412109 0.048661
2615.209961 0.048435
2614.600586 0.045999
2614.394531 0.047985
2613.788086 0.052624
2613.578125 0.043573
2612.976563 0.046425
2612.762695 0.055005
2612.164063 0.048628
2611.946289 0.045754
2611.351563 0.050388
2611.129883 0.044865
2610.539063 0.045076
2610.312500 0.046614
2609.726563 0.044185
2609.496094 0.046165
2608.913086 0.045503
2608.678711 0.043517
2608.100586 0.045937
2607.862305 0.048782
2607.287109 0.048579
2607.044922 0.049211
2606.473633 0.045038
2606.227539 0.056668
2605.660156 0.046796
2605.409180 0.045676
2604.846680 0.047671
2604.591797 0.040836
2604.033203 0.041043
2603.773438 0.050486
2603.218750 0.046331
2602.955078 0.047402
2602.405273 0.047206
2602.136719 0.048270
2601.590820 0.049403
2601.318359 0.050453
2600.776367 0.047190
2600.500000 0.046056
2599.961914 0.044977
2599.680664 0.046485
2599.147461 0.044087
2598.861328 0.049105
2598.333008 0.048047
2598.042969 0.049095
2597.518555 0.044072
2597.222656 0.042072
2596.703125 0.044506
2596.403320 0.042501
2595.888672 0.048904
2595.583984 0.048187
2595.073242 0.046252
2594.763672 0.050366
2594.257813 0.042721
2593.943359 0.044225
2593.442383 0.049319
2593.123047 0.044216
2592.625977 0.047109
2592.302734 0.040705
2591.810547 0.046661
2591.482422 0.046385
2590.994141 0.044012
2590.661133 0.044187
2590.178711 0.047085
2589.839844 0.042865
2589.362305 0.047077
2589.018555 0.045043
2588.545898 0.044429
2588.197266 0.046782
2587.729492 0.043982
2587.375977 0.045897
2586.913086 0.044854
2586.554688 0.046761
2586.095703 0.050561
2585.732422 0.044567
2585.279297 0.050992
2584.910156 0.041062
2584.461914 0.047028
2584.087891 0.044547
2583.644531 0.043065
2583.265625 0.043664
2582.827148 0.041739
2582.443359 0.046711
2582.009766 0.043928
2581.620117 0.044518
2581.192383 0.043482
2580.796875 0.043200
2580.374023 0.044352
2579.973633 0.042318
2579.556641 0.041271
2579.150391 0.042309
2578.738281 0.042581
2578.327148 0.047532
2577.919922 0.053546
2577.503906 0.040546
2577.101563 0.046516
2576.679688 0.043589
2576.283203 0.040804
2575.855469 0.047937
2575.464844 0.046500
2575.031250 0.044441
2574.645508 0.043860
2574.207031 0.042253
2573.827148 0.043414
2573.381836 0.047906
2573.007813 0.046914
2572.557617 0.046154
2572.188477 0.045590
2571.732422 0.043967
2571.369141 0.048212
2570.907227 0.049180
2570.549805 0.043822
2570.082031 0.052651
2569.730469 0.045128
2569.256836 0.045243
2568.910156 0.045558
2568.430664 0.050453
2568.090820 0.043798
2567.605469 0.042180
2567.270508 0.046856
2566.779297 0.047388
2566.450195 0.048161
2565.953125 0.044769
2565.629883 0.043775
2565.125977 0.048671
2564.809570 0.045518
2564.299805 0.046488
2563.989258 0.043760
2563.472656 0.043437
2563.167969 0.044190
2562.646484 0.045599
2562.346680 0.040683
2561.819336 0.043418
2561.526367 0.048985
2560.992188 0.046013
2560.705078 0.043292
2560.164063 0.047739
2559.883789 0.041973
2559.336914 0.042955
2559.061523 0.041091
2558.508789 0.046416
2558.240234 0.045891
2557.680664 0.048141
2557.417969 0.040639
2556.852539 0.046829
2556.596680 0.048934
2556.024414 0.045519
2555.774414 0.042372
2555.195313 0.041608
2554.952148 0.041928
2554.367188 0.042899
2554.129883 0.040611
2553.538086 0.046355
2553.307617 0.041477
2552.708984 0.045479
2552.484375 0.046271
2551.878906 0.039406
2551.662109 0.049318
2551.049805 0.041995
2550.838867 0.048873
2550.219727 0.042851
2550.015625 0.042756
2549.390625 0.043707
2549.192383 0.046674
2548.560547 0.048024
2548.369141 0.050591
2547.730469 0.043256
2547.544922 0.050582
2546.899414 0.047571
2546.721680 0.048393
2546.069336 0.042804
2545.897461 0.048821
2545.238281 0.049279
2545.074219 0.043146
2544.407227 0.045378
2544.250000 0.047496
2543.576172 0.045800
2543.425781 0.043567
2542.745117 0.040606
2542.600586 0.040510
2541.913086 0.044052
2541.776367 0.048342
2541.082031 0.047065
2540.951172 0.047462
2540.250000 0.045760
2540.126953 0.049630
2539.417969 0.044455
2539.301758 0.046139
2538.585938 0.047034
2538.476563 0.044390
2537.752930 0.048749
2537.651367 0.047428
2536.920898 0.038387
2536.826172 0.051335
2536.087891 0.045278
2536.000000 0.047846
2535.254883 0.045268
2535.174805 0.044358
2534.421875 0.047413
2534.348633 0.048264
2533.587891 0.047402
2533.522461 0.045647
2532.754883 0.047822
2532.696289 0.046508
2531.920898 0.049535
2531.870117 0.041719
2531.086914 0.047801
2531.042969 0.042580
2530.252930 0.040471
2530.216797 0.050827
2529.418945 0.052084
2529.389648 0.047343
2528.583984 0.044326
2528.562500 0.044729
2527.749023 0.042595
2527.735352 0.049062
2526.914063 0.045597
2526.908203 0.049054
2526.081055 0.046877
2526.079102 0.049045
2525.253906 0.046866
2525.244141 0.045130
2524.425781 0.045996
2524.409180 0.052064
2523.597656 0.042548
2523.573242 0.049886
2522.769531 0.048575
2522.737305 0.045975
2521.941406 0.045531
2521.901367 0.042099
2521.113281 0.046390
2521.065430 0.045096
2520.285156 0.048549
2520.228516 0.048091
2519.456055 0.047240
2519.392578 0.051086
2518.627930 0.053298
2518.555664 0.045924
2517.798828 0.049822
2517.718750 0.048488
2516.969727 0.048514
2516.881836 0.045474
2516.140625 0.049804
2516.043945 0.049324
2515.311523 0.053692
2515.207031 0.045454
2514.481445 0.049786
2514.369141 0.048444
2513.651367 0.056270
2513.531250 0.045005
2512.822266 0.047171
2512.693359 0.041566
2511.992188 0.040240
2511.855469 0.048412
2511.162109 0.043693
2511.016602 0.045831
2510.332031 0.048443
2510.177734 0.049674
2509.500977 0.046704
2509.338867 0.047094
2508.670898 0.050155
2508.500000 0.049224
2507.839844 0.044526
2507.661133 0.041938
2507.008789 0.046679
2506.821289 0.042356
2506.177734 0.046670
2505.982422 0.046624
2505.346680 0.051414
2505.142578 0.046613
2504.515625 0.046653
2504.302734 0.051306
2503.683594 0.049668
2503.461914 0.049157
2502.852539 0.049227
2502.622070 0.051710
2502.020508 0.047923
2501.781250 0.050844
2501.188477 0.050504
2500.940430 0.045279
2500.356445 0.047905
2500.099609 0.043133
2499.524414 0.044876
2499.258789 0.052517
2498.691406 0.049613
2498.416992 0.049944
2497.859375 0.051329
2497.576172 0.045665
2497.026367 0.044420
2496.734375 0.043947
2496.193359 0.053466
2495.892578 0.055028
2495.360352 0.050439
2495.050781 0.049898
2494.527344 0.048274
2494.208008 0.050740
2493.694336 0.046973
2493.365234 0.047744
2492.860352 0.051703
2492.523438 0.048159
2492.027344 0.049109
2491.680664 0.047296
2491.193359 0.052115
2490.836914 0.046007
2490.359375 0.049952
2489.994141 0.054515
2489.525391 0.046929
2489.150391 0.049392
2488.691406 0.051225
2488.306641 0.050233
2487.856445 0.049494
2487.462891 0.047242
2487.022461 0.052067
2486.619141 0.051486
2486.187500 0.049476
2485.775391 0.045944
2485.352539 0.048176
2484.930664 0.056991
2484.517578 0.049027
2484.085938 0.049324
2483.682617 0.047728
2483.241211 0.047613
2482.846680 0.046430
2482.396484 0.048452
2482.011719 0.050719
2481.550781 0.051840
2481.175781 0.053289
2480.706055 0.050129
2480.339844 0.052419
2479.860352 0.047569
2479.503906 0.047255
2479.014648 0.049681
2478.667969 0.051111
2478.168945 0.052641
2477.832031 0.048096
2477.322266 0.056449
2476.995117 0.053668
2476.476563 0.049222
2476.158203 0.047219
2475.629883 0.044968
2475.322266 0.045923
2474.783203 0.047503
2474.485352 0.050635
2473.936523 0.054276
2473.647461 0.047193
2473.088867 0.051720
2472.810547 0.051045
2472.242188 0.055947
2471.973633 0.051464
2471.394531 0.052544
2471.135742 0.048882
2470.546875 0.047024
2470.297852 0.055303
2469.698242 0.054214
2469.459961 0.051435
2468.850586 0.046155
2468.622070 0.053140
2468.001953 0.052495
2467.784180 0.049274
2467.153320 0.051213
2466.946289 0.051406
2466.304688 0.054586
2466.107422 0.052682
2465.456055 0.055843
2465.268555 0.051387
2464.607422 0.044833
2464.429688 0.049237
2463.757813 0.054125
2463.590820 0.059501
2462.908203 0.051999
2462.751953 0.052214
2462.058594 0.047337
2461.913086 0.054344
2461.208984 0.047749
2461.073242 0.056045
2460.358398 0.052807
2460.233398 0.053468
2459.508789 0.050261
2459.394531 0.053885
2458.658203 0.045604
2458.554688 0.055158
2457.807617 0.052348
2457.713867 0.052583
2456.956055 0.045583
2456.874023 0.046161
2456.105469 0.046838
2456.033203 0.047435
2455.253906 0.050202
2455.193359 0.053835
2454.402344 0.049768
2454.352539 0.050407
2453.550781 0.051022
2453.511719 0.055523
2452.699219 0.046794
2452.670898 0.051242
2451.846680 0.044676
2451.829102 0.049098
2450.995117 0.051828
2450.988281 0.052503
2450.146484 0.052659
2450.142578 0.050360
2449.304688 0.054752
2449.290039 0.052484
2448.462891 0.051792
2448.436523 0.053327
2447.621094 0.052037
2447.583984 0.051359
2446.779297 0.050748
2446.730469 0.052188
2445.937500 0.048180
2445.876953 0.052176
2445.094727 0.051581
2445.023438 0.051743
2444.251953 0.051998
2444.169922 0.049207
2443.409180 0.046874
2443.315430 0.050457
2442.566406 0.054960
2442.460938 0.044980
2441.723633 0.051542
2441.606445 0.055897
2440.879883 0.051533
2440.751953 0.052102
2440.037109 0.054929
2439.897461 0.045788
2439.193359 0.054067
2439.041992 0.048297
2438.349609 0.051503
2438.186523 0.048706
2437.505859 0.049791
2437.331055 0.050793
2436.662109 0.048080
2436.475586 0.050781
2435.817383 0.048496
2435.619141 0.046992
2434.973633 0.046785
2434.763672 0.047820
2434.128906 0.047202
2433.907227 0.048228
2433.284180 0.049744
2433.050781 0.045282
2432.439453 0.050584
2432.194336 0.049463
2431.593750 0.049300
2431.336914 0.048613
2430.749023 0.050565
2430.479492 0.043992
2429.903320 0.047157
2429.622070 0.049846
2429.058594 0.051395
2428.764648 0.045646
2428.212891 0.054783
2427.907227 0.046892
2427.367188 0.048828
2427.048828 0.049392
2426.520508 0.053489
2426.191406 0.048961
2425.674805 0.052205
2425.333008 0.045603
2424.828125 0.050498
2424.473633 0.050611
2423.982422 0.045397
2423.615234 0.044326
2423.135742 0.050478
2422.755859 0.050587
2422.289063 0.044955
2421.897461 0.043469
2421.441406 0.049187
2421.038086 0.049309
2420.594727 0.055537
2420.177734 0.048043
2419.747070 0.051287
2419.318359 0.050956
2418.900391 0.050854
2418.458008 0.047185
2418.052734 0.050420
2417.597656 0.050096
2417.205078 0.052529
2416.737305 0.051336
2416.356445 0.046589
2415.876953 0.049237
2415.508789 0.050815
2415.015625 0.047557
2414.660156 0.049112
2414.155273 0.051299
2413.812500 0.051219
2413.293945 0.048785
2412.963867 0.048246
2412.115234 0.054161
2411.266602 0.040613
2410.416992 0.054140
2409.568359 0.051169
2408.718750 0.055388
2407.869141 0.049036
2407.019531 0.052408
2406.169922 0.052820
2405.319336 0.049430
2404.469727 0.051955
2403.619141 0.049411
2402.768555 0.052357
2401.917969 0.048126
2401.066406 0.048960
2400.215820 0.048529
2399.364258 0.055270
2398.513672 0.053572
2397.662109 0.050188
2396.810547 0.048913
2395.958008 0.055228
2395.106445 0.054374
2394.253906 0.050149
2393.402344 0.058145
2392.549805 0.049708
2391.697266 0.048435
2390.843750 0.050531
2389.991211 0.052627
2389.137695 0.055142
2388.284180 0.051344
2387.430664 0.048388
2386.577148 0.050482
2385.723633 0.050473
2384.869141 0.047940
2384.015625 0.052555
2383.161133 0.056328
2382.306641 0.049593
2381.452148 0.051264
2380.597656 0.052094
2379.742188 0.054184
2378.886719 0.047034
2378.032227 0.057522
2377.176758 0.051214
2376.320313 0.053722
2375.464844 0.046998
2374.609375 0.054121
2373.752930 0.051593
2372.896484 0.052003
2372.040039 0.056186
2371.183594 0.056175
2370.326172 0.049038
2369.469727 0.049448
2368.612305 0.051114
2367.754883 0.051104
2366.897461 0.048162
2366.040039 0.044385
2365.182617 0.054005
2364.324219 0.045623
2363.465820 0.058168
2362.607422 0.053973
2361.749023 0.056054
2360.890625 0.051861
2360.031250 0.053941
2359.172852 0.052676
2358.313477 0.052666
2357.454102 0.051820
2356.594727 0.048885
2355.735352 0.054724
2354.875000 0.055548
2354.015625 0.050526
2353.155273 0.053439
2352.294922 0.055933
2351.434570 0.053418
2350.573242 0.052573
2349.712891 0.053814
2348.851563 0.055472
2347.990234 0.052542
2347.128906 0.052115
2346.267578 0.055856
2345.406250 0.054595
2344.543945 0.054167
2343.681641 0.047491
2342.819336 0.047065
2341.957031 0.054552
2341.094727 0.055790
2340.232422 0.057444
2339.369141 0.055768
2338.505859 0.050764
2337.642578 0.047009
2336.779297 0.050744
2335.916016 0.054060
2335.051758 0.057376
2334.188477 0.058196
2333.324219 0.058600
2332.459961 0.058588
2331.595703 0.054007
2330.730469 0.055658
2329.866211 0.058553
2329.000977 0.055635
2328.135742 0.059360
2327.270508 0.061009
2326.405273 0.059752
2325.540039 0.057251
2324.673828 0.058069
2323.807617 0.052666
2322.941406 0.065924
2322.075195 0.057205
2321.208984 0.065897
2320.341797 0.065056
2319.475586 0.057586
2318.608398 0.053018
2317.741211 0.055492
2316.874023 0.053825
2316.005859 0.059609
2315.138672 0.058356
2314.270508 0.055448
2313.402344 0.057505
2312.534180 0.057080
2311.666016 0.052933
2310.797852 0.051269
2309.928711 0.061593
2309.059570 0.055382
2308.190430 0.053718
2307.321289 0.063209
2306.452148 0.058240
2305.582031 0.057402
2304.712891 0.059868
2303.842773 0.059443
2302.972656 0.061908
2302.102539 0.057769
2301.231445 0.060233
2300.361328 0.061458
2299.490234 0.057322
2298.619141 0.062258
2297.748047 0.058948
2296.876953 0.060585
2296.004883 0.060160
2295.133789 0.056441
2294.261719 0.060548
2293.389648 0.056830
2292.517578 0.056407
2291.645508 0.057630
2290.772461 0.054326
2289.899414 0.053492
2289.027344 0.059241
2288.153320 0.061697
2287.280273 0.064563
2286.407227 0.060439
2285.533203 0.062893
2284.660156 0.056305
2283.786133 0.059992
2282.911133 0.057925
2282.037109 0.065718
2281.163086 0.057902
2280.288086 0.057891
2279.413086 0.060342
2278.538086 0.060740
2277.663086 0.059907
2276.787109 0.058664
2275.912109 0.057012
2275.036133 0.054950
2274.160156 0.061499
2273.284180 0.060257
2272.408203 0.062294
2271.531250 0.064330
2270.655273 0.056533
2269.778320 0.058570
2268.901367 0.058967
2268.024414 0.058137
2267.146484 0.063037
2266.269531 0.062615
2265.391602 0.064239
2264.513672 0.060135
2263.635742 0.067485
2262.757813 0.065018
2261.878906 0.062143
2261.000000 0.054773
2260.122070 0.054762
2259.243164 0.069051
2258.363281 0.064544
2257.484375 0.060446
2256.604492 0.059209
2255.725586 0.058381
2254.845703 0.064083
2253.965820 0.062030
2253.084961 0.066505
2252.205078 0.060781
2251.324219 0.059953
2250.443359 0.060348
2249.562500 0.066859
2248.681641 0.060731
2247.800781 0.057459
2246.918945 0.061929
2246.037109 0.062731
2245.155273 0.060275
2244.273438 0.066370
2243.391602 0.059029
2242.509766 0.061459
2241.626953 0.068771
2240.744141 0.065096
2239.861328 0.061828
2238.978516 0.062222
2238.094727 0.069122
2237.211914 0.061384
2236.328125 0.067468
2235.444336 0.062172
2234.560547 0.068253
2233.675781 0.064990
2232.791992 0.061321
2231.907227 0.066181
2231.022461 0.058455
2230.137695 0.068589
2229.252930 0.062895
2228.368164 0.063693
2227.482422 0.062058
2226.596680 0.061639
2225.710938 0.064059
2224.825195 0.066073
2223.938477 0.068897
2223.052734 0.064425
2222.166016 0.064817
2221.279297 0.066424
2220.392578 0.067625
2219.505859 0.068016
2218.618164 0.063955
2217.731445 0.066370
2216.843750 0.064738
2215.956055 0.067961
2215.068359 0.065520
2214.179688 0.063080
2213.291016 0.060642
2212.403320 0.062650
2211.514648 0.069507
2210.625977 0.057776
2209.736328 0.063420
2208.847656 0.065830
2207.958008 0.063394
2207.068359 0.068225
2206.178711 0.064578
2205.289063 0.064565
2204.398438 0.067376
2203.507813 0.065749
2202.618164 0.066138
2201.727539 0.069754
2200.835938 0.068127
2199.945313 0.064082
2199.053711 0.067293
2198.162109 0.066070
2197.270508 0.071696
2196.378906 0.064835
2195.487305 0.066030
2194.594727 0.061991
2193.703125 0.061173
2192.810547 0.067196
2191.917969 0.064366
2191.024414 0.068777
2190.131836 0.068763
2189.238281 0.063924
2188.344727 0.065921
2187.451172 0.069524
2186.557617 0.062679
2185.664063 0.069093
2184.769531 0.064661
2183.875000 0.059829
2182.980469 0.063029
2182.085938 0.066227
2181.191406 0.063805
2180.295898 0.067804
2179.400391 0.066587
2178.504883 0.063765
2177.609375 0.067762
2176.713867 0.068550
2175.817383 0.065329
2174.921875 0.062911
2174.025391 0.069308
2173.128906 0.066490
2172.231445 0.065675
2171.334961 0.067664
2170.437500 0.062846
2169.540039 0.062833
2168.642578 0.069222
2167.745117 0.072408
2166.847656 0.066793
2165.949219 0.062781
2165.050781 0.069164
2164.152344 0.065553
2163.253906 0.065139
2162.354492 0.071918
2161.456055 0.068707
2160.556641 0.064300
2159.657227 0.061092
2158.757813 0.071060
2157.858398 0.071444
2156.958008 0.071828
2156.057617 0.067425
2155.157227 0.071000
2154.256836 0.066200
2153.356445 0.061800
2152.456055 0.071753
2151.554688 0.064963
2150.653320 0.066942
2149.751953 0.067725
2148.850586 0.069702
2147.948242 0.071280
2147.045898 0.069275
2146.144531 0.065678
2145.242188 0.070440
2144.338867 0.066446
2143.436523 0.071603
2142.533203 0.064827
2141.629883 0.070778
2140.726563 0.063210
2139.823242 0.071146
2138.919922 0.073913
2138.015625 0.071911
2137.111328 0.070704
2136.207031 0.069101
2135.302734 0.066704
2134.398438 0.065499
2133.493164 0.073026
2132.588867 0.071027
2131.683594 0.078153
2130.778320 0.072583
2129.872070 0.073361
2128.966797 0.071364
2128.060547 0.070556
2127.154297 0.074108
2126.248047 0.076866
2125.341797 0.070115
2124.434570 0.080002
2123.527344 0.079589
2122.620117 0.078384
2121.712891 0.081534
2120.805664 0.082308
2119.897461 0.075565
2118.990234 0.084251
2118.082031 0.078302
2117.173828 0.084611
2116.265625 0.082617
2115.356445 0.076276
2114.447266 0.077841
2113.539063 0.078219
2112.628906 0.070303
2111.719727 0.077002
2110.810547 0.070668
2109.900391 0.081706
2108.990234 0.073401
2108.080078 0.074569
2107.169922 0.070214
2106.258789 0.078087
2105.348633 0.073339
2104.437500 0.076477
2103.526367 0.072125
2102.615234 0.079597
2101.703125 0.074459
2100.791992 0.076806
2099.879883 0.071671
2098.967773 0.073624
2098.055664 0.072034
2097.142578 0.077135
2096.230469 0.079085
2095.317383 0.075528
2094.404297 0.076692
2093.490234 0.075496
2092.577148 0.071942
2091.663086 0.070748
2090.750000 0.077020
2089.835938 0.075432
2088.920898 0.071488
2088.006836 0.069117
2087.091797 0.086377
2086.177734 0.085574
2085.262695 0.077706
2084.346680 0.077298
2083.431641 0.077673
2082.515625 0.079226
2081.600586 0.081954
2080.684570 0.080760
2079.767578 0.074863
2078.851563 0.083077
2077.934570 0.075223
2077.017578 0.074032
2076.100586 0.077149
2075.183594 0.076350
2074.266602 0.077508
2073.348633 0.074751
2072.430664 0.075909
2071.512695 0.077067
2070.594727 0.085655
2069.676758 0.076643
2068.757813 0.082100
2067.838867 0.079346
2066.919922 0.077375
2066.000977 0.078921
2065.082031 0.083592
2064.162109 0.072639
2063.242188 0.080823
2062.322266 0.072217
2061.402344 0.085081
2060.481445 0.084282
2059.561523 0.078412
2058.640625 0.074885
2057.719727 0.085398
2056.798828 0.079921
2055.876953 0.073278
2054.956055 0.074821
2054.034180 0.080649
2053.112305 0.086474
2052.189453 0.085288
2051.267578 0.086827
2050.344727 0.077076
2049.421875 0.082897
2048.499023 0.078210
2047.576172 0.077026
2046.652344 0.082455
2045.729492 0.085937
2044.805664 0.082808
2043.881836 0.078126
2042.957031 0.082772
2042.033203 0.076926
2041.108398 0.085067
2040.183594 0.082330
2039.258789 0.083477
2038.333984 0.085400
2037.408203 0.083829
2036.483398 0.083811
2035.557617 0.076810
2034.630859 0.080672
2033.705078 0.076777
2032.778320 0.079086
2031.852539 0.088371
2030.925781 0.073694
2030.818359 0.084864
2029.999023 0.077960
2029.892578 0.082909
2029.071289 0.082213
2028.965820 0.082116
2028.144531 0.076771
2028.040039 0.084809
2027.216797 0.078308
2027.113281 0.086726
2026.289063 0.079845
2026.186523 0.083998
2025.361328 0.080994
2025.260742 0.082819
2024.432617 0.073231
2024.333008 0.081253
2023.503906 0.084841
2023.406250 0.084717
2022.576172 0.073206
2022.479492 0.082378
2021.647461 0.080552
2021.551758 0.080813
2020.717773 0.080926
2020.624023 0.081182
2019.789063 0.078202
2019.696289 0.081551
2018.859375 0.080511
2018.768555 0.081920
2017.929688 0.073918
2017.840820 0.084220
2017.000000 0.075453
2016.913086 0.084588
2016.070313 0.078148
2015.984375 0.089203
2015.139648 0.078135
2015.055664 0.086095
2014.209961 0.080829
2014.126953 0.084532
2013.279297 0.081588
2013.198242 0.080655
2012.348633 0.078481
2012.269531 0.084881
2011.416992 0.080787
2011.340820 0.086791
2010.486328 0.086570
2010.411133 0.081373
2009.554688 0.082305
2009.482422 0.081355
2008.623047 0.086927
2008.552734 0.079024
2007.691406 0.088457
2007.623047 0.089413
2006.759766 0.080718
2006.692383 0.084384
2005.827148 0.082248
2005.762695 0.089759
2004.894531 0.086481
2004.833008 0.088199
2003.961914 0.087624
2003.902344 0.090490
2003.029297 0.083749
2002.971680 0.085080
2002.096680 0.087208
2002.041016 0.082752
2001.163086 0.082177
2001.110352 0.083119
2000.229492 0.084477
2000.178711 0.085794
1999.295898 0.086391
1999.248047 0.088083
1998.362305 0.088690
1998.316406 0.091524
1997.427734 0.090602
1997.384766 0.087275
1996.494141 0.087888
1996.453125 0.084949
1995.559570 0.091341
1995.521484 0.086852
1994.625000 0.089013
1994.589844 0.083759
1993.689453 0.089768
1993.657227 0.086046
1992.754883 0.088597
1992.724609 0.090635
1991.819336 0.080108
1991.792969 0.090615
1990.883789 0.082405
1990.860352 0.087140
1989.948242 0.081620
1989.926758 0.094797
1989.012695 0.088535
1988.994141 0.091323
1988.076172 0.084671
1988.061523 0.091303
1987.139648 0.089658
1987.127930 0.093967
1986.203125 0.090412
1986.194336 0.086661
1985.266602 0.093473
1985.260742 0.094693
1984.330078 0.084611
1984.327148 0.095821
1983.392578 0.083443
1983.392578 0.086987
1982.458984 0.090348
1982.455078 0.085435
1981.524414 0.083413
1981.517578 0.084650
1980.589844 0.083398
1980.580078 0.083099
1979.655273 0.087995
1979.641602 0.088824
1978.720703 0.093358
1978.703125 0.086125
1977.786133 0.093341
1977.765625 0.085723
1976.850586 0.092557
1976.826172 0.092208
1975.915039 0.086013
1975.887695 0.090275
1974.979492 0.081774
1974.948242 0.090638
1974.043945 0.084831
1974.009766 0.089471
1973.108398 0.088653
1973.070313 0.090980
1972.172852 0.080580
1972.130859 0.089431
1971.236328 0.090924
1971.190430 0.095142
1970.299805 0.087072
1970.250000 0.087481
1969.363281 0.088974
1969.310547 0.096628
1968.426758 0.083206
1968.370117 0.092406
1967.490234 0.086258
1967.428711 0.093531
1966.553711 0.085860
1966.488281 0.090456
1965.616211 0.084311
1965.546875 0.086620
1964.678711 0.082764
1964.605469 0.093468
1963.741211 0.080833
1963.664063 0.089252
1962.803711 0.085798
1962.722656 0.091520
1961.866211 0.089613
1961.780273 0.090737
1960.928711 0.094957
1960.837891 0.097196
1959.990234 0.089198
1959.895508 0.093364
1959.051758 0.092244
1958.953125 0.090295
1958.113281 0.086487
1958.010742 0.093703
1957.174805 0.090297
1957.067383 0.094444
1956.236328 0.089899
1956.124023 0.094042
1955.296875 0.091412
1955.180664 0.088311
1954.357422 0.086424
1954.237305 0.091336
1953.418945 0.091379
1953.292969 0.090174
1952.479492 0.097479
1952.349609 0.095099
1951.539063 0.091729
1951.405273 0.092035
1950.599609 0.085216
1950.460938 0.088973
1949.660156 0.094370
1949.515625 0.090093
1948.719727 0.087859
1948.571289 0.094633
1947.779297 0.092044
1947.625977 0.090053
1946.838867 0.095082
1946.680664 0.099529
1945.898438 0.090484
1945.735352 0.094190
1944.957031 0.093521
1944.789063 0.094928
1944.016602 0.089687
1943.842773 0.092629
1943.075195 0.095776
1942.896484 0.090710
1942.133789 0.084695
1941.950195 0.094485
1941.192383 0.098412
1941.003906 0.097498
1940.250977 0.098394
1940.056641 0.095201
1939.308594 0.093038
1939.110352 0.097834
1938.366211 0.103695
1938.163086 0.098191
1937.424805 0.095672
1937.215820 0.094757
1936.482422 0.093368
1936.267578 0.095115
1935.539063 0.092970
1935.319336 0.090547
1934.596680 0.095619
1934.372070 0.096587
1933.654297 0.099411
1933.422852 0.095808
1932.710938 0.097869
1932.474609 0.094272
1931.767578 0.095186
1931.526367 0.097657
1930.824219 0.095930
1930.577148 0.099148
1929.880859 0.097435
1929.627930 0.099126
1928.936523 0.101603
1928.678711 0.103264
1927.993164 0.096638
1927.728516 0.100594
1927.048828 0.092817
1926.779297 0.099059
1926.104492 0.090898
1925.829102 0.097146
1925.160156 0.098866
1924.878906 0.095990
1924.215820 0.095046
1923.928711 0.098991
1923.270508 0.092368
1922.977539 0.097835
1922.326172 0.099572
1922.026367 0.098569
1921.380859 0.094614
1921.075195 0.094770
1920.435547 0.090797
1920.124023 0.097391
1919.490234 0.094199
1919.172852 0.096614
1918.543945 0.099498
1918.220703 0.095460
1917.598633 0.097961
1917.268555 0.096193
1916.652344 0.099462
1916.316406 0.094663
1915.706055 0.100961
1915.364258 0.098789
1914.759766 0.088040
1914.411133 0.096504
1913.813477 0.095992
1913.458984 0.096859
1912.866211 0.095974
1912.505859 0.105503
1911.919922 0.100887
1911.552734 0.097945
1910.972656 0.097834
1910.598633 0.096793
1910.025391 0.099333
1909.645508 0.097900
1909.078125 0.095524
1908.691406 0.095243
1908.129883 0.097780
1907.737305 0.098608
1907.182617 0.092078
1906.782227 0.106111
1906.234375 0.092818
1905.828125 0.102325
1905.286133 0.098104
1904.873047 0.103430
1904.337891 0.097707
1903.917969 0.102278
1903.389648 0.099203
1902.962891 0.093984
1902.440430 0.099185
1902.006836 0.098473
1901.492188 0.099166
1901.051758 0.099953
1900.542969 0.098769
1900.095703 0.102935
1899.593750 0.093832
1899.139648 0.105917
1898.644531 0.099111
1898.183594 0.101762
1897.695313 0.103631
1897.226563 0.103240
1896.745117 0.098317
1896.269531 0.099463
1895.794922 0.100567
1895.312500 0.101691
1894.844727 0.105840
1894.355469 0.103169
1893.894531 0.096372
1893.398438 0.100144
1892.944336 0.100888
1892.440430 0.101246
1891.994141 0.102758
1891.482422 0.094849
1891.042969 0.103872
1890.524414 0.098201
1890.091797 0.100832
1889.566406 0.097054
1889.140625 0.102701
1888.607422 0.103026
1888.189453 0.101926
1887.648438 0.101129
1887.238281 0.091716
1886.689453 0.098110
1886.286133 0.096605
1885.730469 0.102206
1885.334961 0.096586
1884.770508 0.103679
1884.382813 0.097700
1883.811523 0.103655
1883.430664 0.098813
1882.851563 0.104753
1882.477539 0.102188
1881.891602 0.097248
1881.525391 0.098399
1880.930664 0.102835
1880.572266 0.104034
1879.970703 0.094586
1879.619141 0.105145
1879.009766 0.099423
1878.666016 0.106632
1878.048828 0.105753
1877.712891 0.105482
1877.086914 0.104981
1876.759766 0.100565
1876.125977 0.104957
1875.805664 0.102806
1875.164063 0.108666
1874.852539 0.102410
1874.202148 0.101548
1873.898438 0.102014
1873.240234 0.094432
1872.943359 0.105005
1872.277344 0.097396
1871.989258 0.107996
1871.315430 0.100731
1871.035156 0.097065
1870.352539 0.102572
1870.080078 0.107579
1869.389648 0.102175
1869.125000 0.102669
1868.425781 0.104388
1868.169922 0.095882
1867.462891 0.102127
1867.214844 0.099623
1866.499023 0.103967
1866.258789 0.102235
1865.535156 0.103942
1865.303711 0.105973
1864.570313 0.103173
1864.347656 0.100693
1863.606445 0.097563
1863.391602 0.101425
1862.641602 0.097540
1862.435547 0.098401
1861.676758 0.103101
1861.479492 0.103639
1860.711914 0.106426
1860.522461 0.097237
1859.746094 0.101347
1859.565430 0.104168
1858.781250 0.101703
1858.608398 0.103028
1857.815430 0.099432
1857.651367 0.099285
1856.849609 0.096037
1856.694336 0.097403
1855.882813 0.103895
1855.736328 0.098124
1854.916992 0.102750
1854.779297 0.102560
1853.950195 0.102731
1853.821289 0.107737
1852.983398 0.103835
1852.863281 0.105854
1852.015625 0.111686
1851.905273 0.100630
1851.048828 0.100798
1850.946289 0.103948
1850.081055 0.106023
1849.988281 0.110604
1849.113281 0.104130
1849.029297 0.106125
1848.145508 0.101863
1848.070313 0.107213
1847.176758 0.103716
1847.111328 0.101624
1846.208008 0.103321
1846.151367 0.113466
1845.239258 0.106670
1845.192383 0.110103
1844.270508 0.113759
1844.232422 0.108965
1843.301758 0.105507
1843.272461 0.106716
1842.332031 0.103242
1842.312500 0.111506
1841.362305 0.100604
1841.352539 0.108147
1840.392578 0.111428
1840.391602 0.109232
1839.430664 0.113650
1839.422852 0.104764
1838.470703 0.111385
1838.452148 0.110290
1837.508789 0.103142
1837.481445 0.103604
1836.547852 0.106485
1836.510742 0.109128
1835.586914 0.101981
1835.540039 0.116869
1834.625000 0.114287
1834.568359 0.107597
1833.663086 0.108663
1833.597656 0.109420
1832.701172 0.112002
1832.625000 0.110133
1831.739258 0.107501
1831.653320 0.120452
1830.777344 0.113452
1830.681641 0.113774
1829.814453 0.115295
1829.708984 0.118548
1828.851563 0.108558
1828.736328 0.110397
1827.888672 0.111148
1827.763672 0.110371
1826.925781 0.105906
1826.790039 0.111820
1825.962891 0.114460
1825.817383 0.112900
1824.999023 0.111456
1824.843750 0.113242
1824.035156 0.108080
1823.869141 0.115059
1823.071289 0.112903
1822.895508 0.115400
1822.107422 0.112136
1821.920898 0.115004
1821.143555 0.107644
1820.947266 0.120135
1820.178711 0.115816
1819.971680 0.110896
1819.214844 0.122495
1818.997070 0.117131
1818.250000 0.111676
1818.021484 0.115262
1817.285156 0.111282
1817.046875 0.111184
1816.319336 0.107167
1816.070313 0.109317
1815.354492 0.114959
1815.094727 0.115914
1814.388672 0.108241
1814.119141 0.108896
1813.422852 0.116773
1813.142578 0.109238
1812.457031 0.113404
1812.166016 0.116934
1811.491211 0.113010
1811.188477 0.117641
1810.525391 0.115962
1810.211914 0.117245
1809.558594 0.114824
1809.234375 0.114644
1808.591797 0.114430
1808.256836 0.109841
1807.625000 0.116265
1807.279297 0.111283
1806.658203 0.111414
1806.300781 0.115295
1805.690430 0.108050
1805.322266 0.118938
1804.723633 0.107287
1804.343750 0.115239
1803.755859 0.108379
1803.365234 0.113744
1802.788086 0.115037
1802.386719 0.110415
1801.820313 0.106852
1801.407227 0.109654
1800.851563 0.116847
1800.427734 0.108161
1799.883789 0.110890
1799.448242 0.117665
1798.915039 0.109014
1798.467773 0.119103
1797.946289 0.107881
1797.488281 0.113578
1796.977539 0.125651
1796.507813 0.114649
1796.007813 0.115991
1795.527344 0.116818
1795.039063 0.118191
1794.545898 0.112030
1794.069336 0.120020
1793.564453 0.107245
1793.099609 0.104811
1792.583008 0.118928
1792.129883 0.115529
1791.601563 0.112680
1791.160156 0.119208
1790.620117 0.115213
1790.189453 0.113633
1789.637695 0.119207
1789.218750 0.115461
1788.655273 0.120274
1788.248047 0.113588
1787.672852 0.119148
1787.277344 0.122443
1786.690430 0.116927
1786.306641 0.125748
1785.707031 0.118725
1785.334961 0.120176
1784.723633 0.109930
1784.364258 0.127546
1783.740234 0.116841
1783.392578 0.119759
1782.756836 0.123748
1782.420898 0.116409
1781.772461 0.121893
1781.448242 0.122298
1780.788086 0.123322
1780.476563 0.119688
1779.803711 0.122562
1779.503906 0.117817
1778.819336 0.122532
1778.531250 0.117794
1777.833984 0.126148
1777.558594 0.117401
1776.848633 0.119920
1776.585938 0.125130
1775.863281 0.116246
1775.612305 0.125843
1774.877930 0.128240
1774.638672 0.122497
1773.891602 0.133672
1773.666016 0.127637
1772.905273 0.132910
1772.691406 0.133144
1771.918945 0.118680
1771.717773 0.127955
1770.931641 0.131985
1770.744141 0.128113
1769.945313 0.122744
1769.769531 0.118621
1768.958008 0.130090
1768.794922 0.132779
1767.970703 0.134117
1767.820313 0.133473
1766.982422 0.135195
1766.845703 0.126532
1765.995117 0.134063
1765.870117 0.131953
1765.006836 0.129986
1764.894531 0.130466
1764.018555 0.136219
1763.919922 0.135884
1763.029297 0.126621
1762.944336 0.138392
1762.041016 0.138005
1761.967773 0.133274
1761.051758 0.134298
1760.992188 0.139413
1760.062500 0.135742
1760.015625 0.137926
1759.072266 0.139025
1759.039063 0.131723
1758.083008 0.142675
1758.062500 0.141485
1757.092773 0.151102
1757.085938 0.138185
1756.108398 0.145190
1756.101563 0.135250
1755.131836 0.140016
1755.111328 0.143554
1754.154297 0.146234
1754.120117 0.142430
1753.176758 0.146205
1753.128906 0.137322
1752.198242 0.140299
1751.220703 0.142107
1750.242188 0.138040
1749.263672 0.137279
1748.285156 0.140921
1747.306641 0.136490
1746.327148 0.140864
1745.348633 0.143036
1744.369141 0.140808
1743.389648 0.138946
1742.409180 0.134886
1741.429688 0.147685
1740.449219 0.135565
1739.468750 0.142131
1738.488281 0.142835
1737.507813 0.135483
1736.526367 0.137286
1735.544922 0.140919
1734.563477 0.138329
1733.582031 0.129154
1732.600586 0.142662
1731.618164 0.140805
1730.636719 0.138217
1729.654297 0.136727
1728.671875 0.138892
1727.688477 0.138498
1726.706055 0.131529
1725.722656 0.137712
1724.739258 0.144988
1723.755859 0.138021
1722.771484 0.140184
1721.788086 0.135410
1720.803711 0.136843
1719.819336 0.137180
1718.834961 0.141529
1717.850586 0.137124
1716.865234 0.136367
1715.879883 0.141443
1714.894531 0.145059
1713.909180 0.145029
1712.923828 0.143543
1711.937500 0.139507
1710.951172 0.141299
1709.964844 0.143455
1708.978516 0.144154
1707.991211 0.139757
1707.004883 0.143004
1706.017578 0.142975
1705.030273 0.148401
1704.042969 0.147644
1703.054688 0.149795
1702.066406 0.145403
1701.078125 0.152642
1700.089844 0.148250
1699.101563 0.145314
1698.113281 0.143468
1697.124023 0.145617
1696.134766 0.145588
1695.145508 0.142654
1694.155273 0.137181
1693.166016 0.139693
1692.175781 0.146194
1691.185547 0.141449
1690.195313 0.153749
1689.205078 0.145379
1688.213867 0.143175
1687.222656 0.136985
1686.231445 0.144928
1685.240234 0.138377
1684.249023 0.144506
1683.256836 0.144114
1682.264648 0.142637
1681.272461 0.142245
1680.280273 0.142216
1679.287109 0.140740
1678.294922 0.139264
1677.301758 0.138874
1676.308594 0.146800
1675.315430 0.144601
1674.321289 0.142041
1673.327148 0.136953
1672.333008 0.145234
1671.338867 0.140147
1670.344727 0.141924
1669.349609 0.145144
1668.355469 0.135007
1667.360352 0.138227
1666.365234 0.141807
1665.369141 0.138531
1664.374023 0.148241
1663.377930 0.143162
1662.381836 0.138085
1661.384766 0.142382
1660.388672 0.146677
1659.391602 0.143764
1658.395508 0.145896
1657.397461 0.145145
1656.400391 0.146196
1655.403320 0.149045
1654.405273 0.152614
1653.407227 0.155821
1652.409180 0.149673
1651.411133 0.148562
1650.412109 0.161838
1649.413086 0.153175
1648.414063 0.153144
1647.415039 0.155268
1646.416016 0.168891
1645.416016 0.160593
1644.416016 0.153376
1643.416016 0.158012
1642.416016 0.151158
1641.415039 0.150767
1640.415039 0.152172
1639.414063 0.156087
1638.413086 0.154978
1637.411133 0.162837
1636.410156 0.158859
1635.408203 0.155957
1634.406250 0.163452
1633.404297 0.167002
1632.402344 0.157293
1631.399414 0.171231
1630.396484 0.165823
1629.393555 0.165789
1628.390625 0.163606
1627.387695 0.170015
1626.383789 0.166401
1625.379883 0.168155
1624.375977 0.160966
1623.372070 0.162363
1622.367188 0.170195
1621.362305 0.160865
1620.357422 0.161904
1619.352539 0.171518
1618.347656 0.163622
1617.341797 0.169660
1616.335938 0.167839
1615.330078 0.173160
1614.324219 0.165984
1613.318359 0.169518
1612.311523 0.168769
1611.304688 0.168021
1610.297852 0.170482
1609.291016 0.170803
1608.283203 0.172906
1607.275391 0.173226
1606.267578 0.179248
1605.259766 0.172797
1604.251953 0.177748
1603.243164 0.184477
1602.234375 0.184083
1601.225586 0.176212
1600.216797 0.179735
1599.207031 0.176494
1598.198242 0.187486
1597.188477 0.180333
1596.178711 0.177094
1595.167969 0.177413
1594.158203 0.179508
1593.147461 0.177693
1592.136719 0.170550
1591.125977 0.178684
1590.114258 0.181133
1589.103516 0.176479
1588.091797 0.173601
1587.080078 0.177114
1586.067383 0.172464
1585.055664 0.174911
1584.042969 0.167425
1583.030273 0.176256
1582.017578 0.178346
1581.003906 0.174409
1579.991211 0.169056
1578.977539 0.182131
1577.963867 0.173590
1576.949219 0.169303
1575.935547 0.179182
1574.920898 0.171710
1573.906250 0.182292
1572.891602 0.182608
1571.876953 0.173016
1570.861328 0.160245
1569.845703 0.160565
1568.830078 0.176442
1567.814453 0.159436
1566.797852 0.169299
1565.782227 0.166436
1564.765625 0.177353
1563.749023 0.174489
1562.731445 0.162092
1561.714844 0.164530
1560.697266 0.161318
1559.679688 0.166930
1558.662109 0.156662
1557.643555 0.160157
1556.625000 0.159065
1555.607422 0.163262
1554.587891 0.161465
1553.569336 0.164251
1552.549805 0.157873
1551.531250 0.163124
1550.511719 0.161680
1549.491211 0.156715
1548.471680 0.158443
1547.451172 0.158057
1546.430664 0.167878
1545.410156 0.166786
1544.389648 0.166751
1543.368164 0.162846
1542.346680 0.167735
1541.325195 0.167699
1540.303711 0.159579
1539.282227 0.157788
1538.259766 0.164430
1537.237305 0.169664
1536.214844 0.161901
1535.191406 0.165027
1534.168945 0.169204
1533.145508 0.166360
1532.122070 0.161061
1531.098633 0.169096
1530.074219 0.163798
1529.050781 0.160607
1528.026367 0.159171
1527.000977 0.164394
1525.976563 0.167513
1524.951172 0.157667
1523.926758 0.171295
1522.901367 0.170558
1521.875000 0.162818
1520.849609 0.162083
1519.823242 0.164148
1518.796875 0.162364
1517.770508 0.168276
1516.743164 0.170339
1515.716797 0.168204
1514.689453 0.176559
1513.662109 0.167083
1512.634766 0.164951
1511.606445 0.166662
1510.578125 0.173962
1509.549805 0.169035
1508.521484 0.178077
1507.493164 0.175945
1506.463867 0.173115
1505.434570 0.176218
1504.405273 0.182809
1503.375977 0.182072
1502.345703 0.178545
1501.315430 0.190710
1500.285156 0.166617
1499.254883 0.175294
1498.223633 0.170726
1497.193359 0.174870
1496.162109 0.183539
1495.130859 0.180017
1494.098633 0.177890
1493.067383 0.178896
1492.035156 0.185817
1491.002930 0.178819
1489.969727 0.172519
1488.937500 0.185696
1487.904297 0.183223
1486.871094 0.182835
1485.837891 0.188356
1484.803711 0.176850
1483.770508 0.185496
1482.736328 0.173995
1481.702148 0.175346
1480.666992 0.181904
1479.632813 0.173188
1478.597656 0.180438
1477.562500 0.183868
1476.527344 0.172382
1475.491211 0.179627
1474.455078 0.178548
1473.418945 0.185788
1472.382813 0.178124
1471.346680 0.172888
1470.309570 0.178047
1469.272461 0.175584
1468.235352 0.180393
1467.198242 0.178969
1466.160156 0.185160
1465.122070 0.183390
1464.083984 0.186810
1463.045898 0.177776
1462.006836 0.176700
1460.968750 0.185651
1459.929688 0.176624
1458.889648 0.189371
1457.850586 0.187257
1456.810547 0.188253
1455.771484 0.187521
1454.730469 0.184373
1453.690430 0.183297
1452.649414 0.195336
1451.609375 0.191498
1450.568359 0.190767
1449.526367 0.197278
1448.485352 0.193097
1447.443359 0.205121
1446.401367 0.191290
1445.359375 0.197451
1444.316406 0.195340
1443.274414 0.206664
1442.231445 0.201454
1441.188477 0.206574
1440.144531 0.193449
1439.101563 0.193751
1438.057617 0.198181
1437.013672 0.204674
1435.968750 0.206692
1434.924805 0.212836
1433.879883 0.218634
1432.834961 0.224085
1431.790039 0.232970
1430.744141 0.232575
1429.698242 0.242828
1428.653320 0.262691
1427.606445 0.262634
1426.560547 0.256055
1425.513672 0.256685
1424.466797 0.258001
1423.419922 0.258630
1422.373047 0.258916
1421.325195 0.249945
1420.277344 0.246463
1419.229492 0.242981
1418.181641 0.246697
1417.132813 0.241847
1416.084961 0.247958
1415.036133 0.241741
1413.986328 0.243057
1412.937500 0.250191
1411.887695 0.244661
1410.837891 0.242554
1409.788086 0.261655
1408.738281 0.256468
1407.687500 0.263591
1406.636719 0.254304
1405.585938 0.250830
1404.534180 0.262050
1403.483398 0.245596
1402.431641 0.247249
1401.379883 0.254023
1400.327148 0.241679
1399.275391 0.246403
1398.222656 0.238160
1397.169922 0.242201
1396.117188 0.231575
1395.063477 0.232887
1394.009766 0.238972
1392.956055 0.243350
1391.902344 0.229666
1390.848633 0.237792
1389.793945 0.229564
1388.739258 0.235984
1387.684570 0.252273
1386.628906 0.265151
1385.574219 0.248758
1384.518555 0.262312
1383.462891 0.276200
1382.406250 0.286001
1381.350586 0.283557
1380.293945 0.289613
1379.237305 0.299064
1378.179688 0.306133
1377.123047 0.310481
1376.065430 0.321280
1375.007813 0.329697
1373.949219 0.330303
1372.891602 0.316653
1371.833008 0.322351
1370.774414 0.305657
1369.715820 0.298466
1368.656250 0.281445
1367.596680 0.257652
1366.537109 0.259967
1365.477539 0.250082
1364.417969 0.243589
1363.357422 0.225244
1362.296875 0.222823
1361.236328 0.216680
1360.174805 0.225432
1359.113281 0.207446
1358.052734 0.207399
1356.990234 0.213442
1355.928711 0.213732
1354.866211 0.213346
1353.803711 0.211608
1352.741211 0.200747
1351.678711 0.202729
1350.615234 0.205048
1349.551758 0.208380
1348.488281 0.206982
1347.424805 0.196133
1346.360352 0.194064
1345.295898 0.212917
1344.231445 0.204435
1343.166992 0.197307
1342.101563 0.207378
1341.036133 0.198229
1339.970703 0.219082
1338.905273 0.206228
1337.838867 0.202812
1336.772461 0.209503
1335.706055 0.209793
1334.639648 0.216816
1333.572266 0.226528
1332.504883 0.223112
1331.437500 0.232482
1330.370117 0.236130
1329.302734 0.240112
1328.234375 0.235351
1327.166016 0.241685
1326.096680 0.244319
1325.028320 0.233848
1323.958984 0.242865
1322.889648 0.236429
1321.820313 0.245106
1320.750000 0.235987
1319.679688 0.234591
1318.609375 0.225479
1317.539063 0.225092
1316.468750 0.225041
1315.397461 0.221302
1314.326172 0.214883
1313.254883 0.214164
1312.182617 0.210094
1311.142578 0.210047
1311.110352 0.207617
1310.069336 0.205645
1310.038086 0.212975
1308.997070 0.209617
1308.965820 0.211597
1307.923828 0.202539
1307.892578 0.204865
1306.851563 0.199815
1306.820313 0.201146
1305.778320 0.201778
1305.747070 0.209141
1304.704102 0.199390
1304.672852 0.203751
1303.630859 0.191652
1303.599609 0.191338
1302.557617 0.200303
1302.525391 0.205684
1301.483398 0.196580
1301.451172 0.200966
1300.409180 0.205894
1300.376953 0.203605
1299.334961 0.205179
1299.301758 0.190866
1298.259766 0.206134
1298.227539 0.202863
1297.185547 0.203749
1297.152344 0.205834
1296.110352 0.198694
1296.076172 0.196108
1295.035156 0.210334
1295.000977 0.207095
1293.959961 0.201941
1293.924805 0.210398
1292.883789 0.219248
1292.848633 0.210026
1291.808594 0.223008
1291.772461 0.217863
1290.732422 0.220297
1290.695313 0.219482
1289.656250 0.240948
1289.618164 0.233438
1288.580078 0.232229
1288.541016 0.223382
1287.502930 0.236190
1287.463867 0.236665
1286.426758 0.245486
1286.386719 0.229279
1285.349609 0.242440
1285.308594 0.235890
1284.272461 0.244063
1284.230469 0.236502
1283.195313 0.238685
1283.152344 0.231453
1282.118164 0.225309
1282.073242 0.226406
1281.040039 0.218937
1280.994141 0.224024
1279.961914 0.221229
1279.915039 0.223640
1278.883789 0.212195
1278.835938 0.216934
1277.805664 0.217485
1277.755859 0.205575
1276.727539 0.207788
1276.676758 0.201204
1275.648438 0.205752
1275.596680 0.203153
1274.569336 0.200389
1274.515625 0.193134
1273.490234 0.206342
1273.435547 0.200733
1272.411133 0.210297
1272.354492 0.198029
1271.332031 0.204936
1271.273438 0.193333
1270.251953 0.201572
1270.191406 0.197274
1269.171875 0.200204
1269.110352 0.198557
1268.091797 0.197508
1268.028320 0.194528
1267.011719 0.198468
1266.946289 0.201785
1265.931641 0.196438
1265.864258 0.189130
1264.850586 0.191416
1264.781250 0.200697
1263.769531 0.192710
1263.698242 0.192691
1262.688477 0.203969
1262.615234 0.195631
1261.607422 0.191642
1261.532227 0.188292
1260.526367 0.195260
1260.448242 0.194878
1259.444336 0.188915
1259.364258 0.191188
1258.362305 0.199171
1258.280273 0.189156
1257.280273 0.199134
1257.196289 0.201367
1256.198242 0.193456
1256.111328 0.186420
1255.115234 0.196074
1255.026367 0.193660
1254.033203 0.192057
1253.941406 0.192291
1252.950195 0.192021
1252.856445 0.211108
1251.867188 0.191654
1251.770508 0.199149
1250.783203 0.194270
1250.684570 0.187528
1249.700195 0.187273
1249.598633 0.189799
1248.616211 0.183593
1248.511719 0.192400
1247.532227 0.198469
1247.425781 0.190042
1246.448242 0.192137
1246.338867 0.198258
1245.364258 0.201044
1245.250977 0.191605
1244.279297 0.186767
1244.164063 0.200809
1243.195313 0.205273
1243.076172 0.191847
1242.110352 0.206889
1241.988281 0.202366
1241.024414 0.203541
1240.900391 0.200339
1239.939453 0.207474
1239.812500 0.207222
1238.853516 0.208758
1238.723633 0.202885
1237.768555 0.209049
1237.634766 0.210094
1236.682617 0.218931
1236.544922 0.206748
1235.595703 0.210955
1235.456055 0.209996
1234.509766 0.209262
1234.366211 0.205004
1233.422852 0.205587
1233.276367 0.209569
1232.336914 0.208522
1232.186523 0.206885
1231.250000 0.208483
1231.095703 0.204861
1230.162109 0.210756
1230.004883 0.191642
1229.075195 0.215339
1228.914063 0.197194
1227.987305 0.201100
1227.823242 0.210971
1226.899414 0.206344
1226.731445 0.191508
1225.811523 0.203004
1225.639648 0.193766
1224.723633 0.203955
1224.547852 0.191089
1223.634766 0.209196
1223.456055 0.194333
1222.546875 0.197280
1222.363281 0.196589
1221.458008 0.200871
1221.270508 0.200487
1220.368164 0.205120
1220.177734 0.199126
1219.279297 0.205081
1219.084961 0.200722
1218.189453 0.199437
1217.991211 0.195748
1217.100586 0.198411
1216.897461 0.202270
1216.010742 0.215179
1215.803711 0.209444
1214.919922 0.216126
1214.708984 0.207098
1213.830078 0.203897
1213.614258 0.216893
1212.739258 0.218349
1212.519531 0.228324
1211.648438 0.231148
1211.424805 0.232862
1210.557617 0.236701
1210.329102 0.232152
1209.466797 0.246530
1209.234375 0.238654
1208.375977 0.242863
1208.138672 0.234993
1207.284180 0.252029
1207.041992 0.231005
1206.192383 0.239151
1205.946289 0.231606
1205.100586 0.228252
1204.849609 0.235154
1204.007813 0.238730
1203.752930 0.227241
1202.916016 0.232109
1202.655273 0.227187
1201.823242 0.225819
1201.558594 0.224515
1200.730469 0.220189
1200.460938 0.231007
1199.637695 0.227704
1199.362305 0.218521
1198.543945 0.235873
1198.264648 0.232860
1197.451172 0.229587
1197.166016 0.233459
1196.357422 0.240051
1196.067383 0.234712
1195.263672 0.253794
1194.968750 0.243480
1194.168945 0.259325
1193.870117 0.257473
1193.075195 0.255008
1192.770508 0.257738
1191.980469 0.270381
1191.670898 0.278253
1190.885742 0.262455
1190.570313 0.269371
1189.791016 0.283397
1189.470703 0.270613
1188.696289 0.271208
1188.370117 0.274465
1187.600586 0.280664
1187.269531 0.259391
1186.504883 0.271431
1186.167969 0.244651
1185.409180 0.244502
1185.067383 0.246876
1184.313477 0.238884
1183.965820 0.221060
1183.216797 0.233596
1182.864258 0.222311
1182.121094 0.215535
1181.761719 0.209874
1181.024414 0.209598
1180.659180 0.201027
1179.927734 0.202681
1179.556641 0.191533
1178.830078 0.205915
1178.454102 0.196373
1177.733398 0.185909
1177.351563 0.181675
1176.635742 0.192418
1176.248047 0.178702
1175.538086 0.198597
1175.144531 0.178985
1174.440430 0.176641
1174.040039 0.180569
1173.341797 0.192305
1172.936523 0.165564
1172.243164 0.185401
1171.832031 0.170727
1171.145508 0.179153
1170.727539 0.173287
1170.045898 0.183040
1169.622070 0.175196
1168.947266 0.179410
1168.517578 0.181654
1167.848633 0.174474
1167.412109 0.176087
1166.749023 0.180319
1166.306641 0.168250
1165.649414 0.166893
1165.200195 0.172431
1164.549805 0.177310
1164.093750 0.176935
1163.449219 0.165848
1162.987305 0.162287
1162.348633 0.172018
1161.880859 0.164520
1161.249023 0.171657
1160.773438 0.161885
1160.147461 0.178475
1159.666016 0.169955
1159.046875 0.168654
1158.558594 0.162456
1157.946289 0.174491
1157.451172 0.169225
1156.844727 0.162718
1156.342773 0.163350
1155.743164 0.172140
1155.234375 0.162987
1154.641602 0.168195
1154.125977 0.167159
1153.539063 0.161970
1153.017578 0.164204
1152.436523 0.165522
1151.908203 0.170317
1151.334961 0.171353
1150.798828 0.166391
1150.231445 0.171319
1149.689453 0.167646
1149.128906 0.166726
1148.579102 0.163399
1148.026367 0.166042
1147.468750 0.166918
1146.922852 0.175774
1146.358398 0.171729
1145.819336 0.175414
1145.248047 0.172658
1144.715820 0.166920
1144.136719 0.170030
1143.611328 0.166236
1143.025391 0.164495
1142.506836 0.173358
1141.914063 0.168332
1141.403320 0.175275
1140.801758 0.164093
1140.297852 0.166787
1139.689453 0.169220
1139.193359 0.168054
1138.577148 0.171762
1138.088867 0.174520
1137.464844 0.168492
1136.983398 0.169612
1136.351563 0.166193
1135.877930 0.167954
1135.239258 0.177444
1134.771484 0.165971
1134.125000 0.172886
1133.666016 0.172108
1133.011719 0.169297
1132.559570 0.167853
1131.897461 0.169578
1131.453125 0.185024
1130.783203 0.176306
1130.346680 0.166488
1129.668945 0.161118
1129.240234 0.182354
1128.553711 0.170743
1128.132813 0.167395
1127.439453 0.165871
1127.025391 0.169632
1126.324219 0.170016
1125.917969 0.171868
1125.208008 0.165790
1124.810547 0.166646
1124.092773 0.175405
1123.702148 0.173744
1122.976563 0.173753
1122.594727 0.173385
1121.859375 0.174033
1121.486328 0.173026
1120.743164 0.173990
1120.377930 0.175907
1119.625977 0.170089
1119.268555 0.173928
1118.508789 0.180334
1118.159180 0.183608
1117.391602 0.183826
1117.050781 0.179363
1116.273438 0.173499
1115.940430 0.170910
1115.155273 0.177954
1114.831055 0.173465
1114.037109 0.165386
1113.721680 0.168577
1112.918945 0.165024
1112.611328 0.169513
1111.799805 0.164663
1111.500977 0.166245
1110.680664 0.169115
1110.389648 0.162331
1109.561523 0.160412
1109.279297 0.165208
1108.441406 0.155882
1108.167969 0.166144
1107.321289 0.163540
1107.056641 0.164495
1106.201172 0.160935
1105.945313 0.159615
1105.081055 0.160254
1104.833984 0.147953
1103.959961 0.150282
1103.721680 0.150184
1102.838867 0.151526
1102.609375 0.147571
1101.717773 0.154051
1101.497070 0.160132
1100.595703 0.156254
1100.384766 0.149125
1099.473633 0.150774
1099.271484 0.153935
1098.351563 0.145296
1098.158203 0.145838
1097.229492 0.142701
1097.044922 0.152583
1096.106445 0.149383
1095.931641 0.145456
1094.983398 0.155742
1094.818359 0.154456
1093.860352 0.153146
1093.704102 0.152490
1092.737305 0.153108
1092.589844 0.145046
1091.613281 0.147957
1091.475586 0.149528
1090.489258 0.152074
1090.360352 0.150464
1089.364258 0.148842
1089.246094 0.153010
1088.240234 0.149763
1088.130859 0.156522
1087.115234 0.150365
1087.015625 0.154558
1085.989258 0.142987
1085.900391 0.159677
1084.864258 0.152843
1084.784180 0.154173
1083.738281 0.144830
1083.667969 0.147062
1082.612305 0.147026
1082.551758 0.154110
1081.486328 0.139019
1081.435547 0.154079
1080.359375 0.154923
1080.318359 0.149224
1079.232422 0.145642
1079.202148 0.147264
1078.105469 0.144331
1078.084961 0.142733
1076.977539 0.147481
1076.966797 0.141097
1075.849609 0.148718
1075.849609 0.148780
1074.731445 0.144542
1074.721680 0.148107
1073.613281 0.149280
1073.593750 0.150968
1072.495117 0.153698
1072.464844 0.150937
1071.376953 0.147374
1071.335938 0.150478
1070.257813 0.143492
1070.207031 0.144080
1069.138672 0.151807
1069.077148 0.147541
1068.019531 0.147605
1067.948242 0.148458
1066.900391 0.144045
1066.817383 0.151281
1065.781250 0.146903
1065.687500 0.146795
1064.661133 0.151041
1064.556641 0.139770
1063.541016 0.138827
1063.425781 0.150533
1062.419922 0.139760
1062.294922 0.146685
1061.299805 0.153192
1061.163086 0.155536
1060.178711 0.141945
1060.032227 0.153275
1059.057617 0.151527
1058.899414 0.158947
1057.936523 0.155019
1057.767578 0.148758
1056.815430 0.144099
1056.634766 0.149672
1055.693359 0.153354
1055.501953 0.160096
1054.571289 0.156843
1054.369141 0.163542
1053.449219 0.160011
1053.235352 0.159698
1052.327148 0.155179
1052.101563 0.157440
1051.204102 0.161865
1050.967773 0.158351
1050.081055 0.169187
1049.833984 0.155461
1048.958008 0.159240
1048.699219 0.148775
1047.834961 0.160486
1047.564453 0.168991
1046.710938 0.159813
1046.428711 0.163886
1045.586914 0.167769
1045.293945 0.165426
1044.462891 0.161664
1044.158203 0.154949
1043.338867 0.159395
1043.021484 0.169136
1042.213867 0.168623
1041.885742 0.165932
1041.089844 0.159648
1040.749023 0.156411
1039.964844 0.169830
1039.612305 0.165848
1038.838867 0.165965
1038.474609 0.159805
1037.713867 0.164016
1037.337891 0.159765
1036.587891 0.161749
1036.200195 0.167616
1035.461914 0.162991
1035.061523 0.162208
1034.335938 0.159449
1033.923828 0.168161
1033.209961 0.173126
1032.785156 0.167172
1032.083008 0.174365
1031.646484 0.176590
1030.956055 0.161262
1030.506836 0.160782
1029.829102 0.180665
1029.367188 0.169566
1028.701172 0.170434
1028.227539 0.175509
1027.574219 0.176450
1027.087891 0.181765
1026.446289 0.177050
1025.947266 0.174160
1025.318359 0.178923
1024.806641 0.167818
1024.189453 0.181751
1023.666016 0.169034
1023.061523 0.177576
1022.524414 0.178746
1021.932617 0.172448
1021.382813 0.172723
1020.803711 0.175275
1020.241211 0.177082
1019.674805 0.171740
1019.098633 0.166031
1018.544922 0.161529
1017.957031 0.161273
1017.415039 0.167536
1016.813477 0.170346
1016.285156 0.170043
1015.670898 0.157419
1015.155273 0.165559
1014.527344 0.161777
1014.024414 0.171878
1013.383789 0.169272
1012.894531 0.168031
1012.240234 0.173310
1011.763672 0.165455
1011.095703 0.168243
1010.631836 0.180343
1009.951172 0.166945
1009.500977 0.171735
1008.806641 0.162509
1008.369141 0.174238
1007.662109 0.180972
1007.237305 0.168807
1006.516602 0.175595
1006.105469 0.179875
1005.371094 0.173355
1004.972656 0.168736
1004.224609 0.171430
1003.840820 0.175677
1003.079102 0.180472
1002.708008 0.176274
1001.932617 0.174787
1001.575195 0.180675
1000.785156 0.179439
1000.441406 0.188560
999.638672 0.186906
999.307617 0.184084
998.491211 0.189987
998.173828 0.192599
997.342773 0.186809
997.040039 0.188124
996.195313 0.191140
995.906250 0.185235
995.046875 0.184523
994.771484 0.190894
993.898438 0.179784
993.636719 0.177877
992.749023 0.178175
992.501953 0.180688
991.599609 0.173128
991.367188 0.175904
990.450195 0.176832
990.231445 0.171439
989.300781 0.167103
989.095703 0.178360
987.959961 0.168521
986.824219 0.180814
985.687500 0.177931
984.550781 0.175998
983.414063 0.169958
982.277344 0.169607
981.139648 0.172097
980.001953 0.167956
978.864258 0.180231
977.726563 0.177353
976.587891 0.170374
975.449219 0.174439
974.310547 0.174717
973.171875 0.187923
972.032227 0.177165
970.893555 0.178073
969.752930 0.182132
968.613281 0.182093
967.473633 0.202843
966.333008 0.202170
965.192383 0.194256
964.050781 0.202714
962.910156 0.200468
961.768555 0.193188
960.626953 0.190002
959.485352 0.193106
958.342773 0.182374
957.200195 0.186108
956.057617 0.177268
954.915039 0.175659
953.771484 0.174993
952.628906 0.177469
951.485352 0.161415
950.340820 0.160125
949.197266 0.162288
948.052734 0.160056
946.908203 0.167239
945.762695 0.163125
944.618164 0.158386
943.472656 0.164623
942.327148 0.170545
941.181641 0.156090
940.035156 0.155117
938.888672 0.161976
937.742188 0.160375
936.595703 0.155644
935.448242 0.161872
934.301758 0.159020
933.154297 0.166810
932.005859 0.166462
930.858398 0.167990
929.709961 0.170456
928.561523 0.166667
927.413086 0.174447
926.263672 0.179411
925.114258 0.185935
923.964844 0.189019
922.815430 0.192727
921.665039 0.191436
920.514648 0.194518
919.364258 0.181365
918.213867 0.184447
917.062500 0.177543
915.911133 0.180936
914.759766 0.181209
913.608398 0.186471
912.456055 0.186431
911.303711 0.182962
910.151367 0.181053
908.999023 0.192230
907.845703 0.180975
906.692383 0.202424
905.539063 0.202380
904.385742 0.197045
903.231445 0.190467
902.077148 0.206605
900.922852 0.208427
899.768555 0.209315
898.613281 0.203051
897.458008 0.215132
896.302734 0.213220
895.146484 0.213796
893.991211 0.206914
892.834961 0.218673
891.678711 0.228563
890.521484 0.238759
889.364258 0.251745
888.207031 0.277449
887.049805 0.298488
885.892578 0.321999
884.734375 0.325031
883.576172 0.325271
882.417969 0.318070
881.258789 0.291346
880.099609 0.273929
878.940430 0.254042
877.781250 0.237881
876.621094 0.226371
875.461914 0.223535
874.301758 0.206772
873.140625 0.203632
871.980469 0.188427
870.819336 0.191479
869.658203 0.189891
868.496094 0.191705
867.334961 0.184553
866.172852 0.183586
865.010742 0.182310
863.847656 0.171766
862.685547 0.178215
861.522461 0.180955
860.359375 0.185238
859.195313 0.174086
858.031250 0.182997
856.867188 0.181415
855.703125 0.185076
854.539063 0.188120
853.374023 0.184071
852.208984 0.190196
851.043945 0.191387
849.877930 0.189188
848.711914 0.190687
847.545898 0.197421
846.379883 0.202304
845.212891 0.199489
844.046875 0.206833
842.879883 0.225251
841.711914 0.237200
840.544922 0.248836
839.376953 0.265387
838.208008 0.294229
837.040039 0.330743
835.871094 0.383836
834.702148 0.444587
833.533203 0.539101
832.364258 0.633880
831.194336 0.756559
830.024414 0.883174
828.854492 0.979043
827.683594 1.000000
826.513672 0.926461
825.342773 0.820750
824.170898 0.712019
823.000000 0.599350
821.828125 0.523204
820.656250 0.452609
819.483398 0.409004
818.311523 0.365726
817.138672 0.315116
815.965820 0.293615
814.791992 0.268144
813.619141 0.260434
812.445313 0.257623
811.270508 0.248389
810.096680 0.237019
808.921875 0.239718
807.747070 0.216432
806.572266 0.219441
805.396484 0.223059
804.221680 0.212317
803.045898 0.211049
801.869141 0.210391
800.693359 0.211871
799.516602 0.203889
798.339844 0.206285
797.162109 0.198917
795.985352 0.202228
794.807617 0.203708
793.628906 0.197565
792.451172 0.200265
791.272461 0.216068
790.093750 0.221199
788.915039 0.214449
787.735352 0.236633
786.556641 0.247847
785.375977 0.228309
784.196289 0.230085
783.015625 0.221209
781.835938 0.215380
780.654297 0.199517
779.473633 0.191263
778.291992 0.198820
777.110352 0.185403
775.928711 0.190224
774.747070 0.190789
773.564453 0.186190
772.381836 0.192222
771.199219 0.187929
770.015625 0.181513
768.832031 0.175403
767.648438 0.186590
766.464844 0.198378
765.280273 0.196818
764.095703 0.207083
762.911133 0.211280
761.725586 0.228508
760.541016 0.241788
759.355469 0.262030
758.168945 0.274995
756.983398 0.294918
755.796875 0.303934
754.610352 0.304774
753.422852 0.300167
752.236328 0.290419
751.048828 0.281583
749.861328 0.266098
748.672852 0.253039
747.485352 0.247844
746.296875 0.238119
745.107422 0.234441
743.918945 0.222910
742.729492 0.224974
741.540039 0.211036
740.349609 0.201631
739.160156 0.204906
737.969727 0.194602
736.779297 0.188827
735.587891 0.190293
734.397461 0.189044
733.206055 0.188700
732.013672 0.192274
730.822266 0.189519
729.629883 0.184657
728.437500 0.182206
727.244141 0.186079
726.051758 0.182124
724.858398 0.192316
723.665039 0.188963
722.470703 0.181400
721.276367 0.186171
720.082031 0.192143
718.887695 0.183983
717.693359 0.183942
716.498047 0.184501
715.302734 0.193773
714.106445 0.195231
712.911133 0.190683
711.714844 0.194542
710.517578 0.196300
709.321289 0.195055
708.124023 0.190211
706.926758 0.197367
705.729492 0.197622
704.531250 0.193380
703.333008 0.193336
702.134766 0.202283
700.936523 0.198941
699.737305 0.200993
698.538086 0.200948
697.338867 0.216771
696.138672 0.204748
694.938477 0.220564
693.738281 0.218718
692.538086 0.217772
691.336914 0.217124
690.135742 0.206610
688.934570 0.223602
687.732422 0.217276
686.531250 0.222605
685.328125 0.225542
684.125977 0.232360
682.923828 0.227828
681.720703 0.220015
680.516602 0.231605
679.313477 0.230359
678.109375 0.232991
676.905273 0.235623
675.701172 0.241533
674.496094 0.232534
673.291992 0.250663
672.085938 0.248222
670.880859 0.241611
669.674805 0.248705
668.468750 0.245373
667.262695 0.244721
666.055664 0.233653
664.849609 0.237468
663.642578 0.230869
662.434570 0.230816
661.227539 0.235224
660.019531 0.229224
658.810547 0.224714
657.602539 0.223177
656.393555 0.241843
655.184570 0.234065
653.975586 0.237575
652.765625 0.243756
651.555664 0.231530
650.345703 0.223168
649.134766 0.226677
647.924805 0.217727
646.712891 0.210263
645.501953 0.211401
644.291016 0.213131
643.079102 0.214860
641.866211 0.216885
640.654297 0.210023
639.441406 0.212936
638.228516 0.209038
637.015625 0.211358
635.801758 0.213086
634.587891 0.212741
633.374023 0.208551
632.160156 0.209095
630.945313 0.213186
629.730469 0.210772
628.514648 0.203926
627.299805 0.215699
626.083984 0.212104
624.868164 0.207625
623.651367 0.207283
622.435547 0.216682
621.218750 0.216041
620.000977 0.221303
618.784180 0.219187
617.566406 0.222676
616.347656 0.235304
615.129883 0.221984
613.911133 0.225764
612.692383 0.213631
611.473633 0.213877
610.253906 0.207348
609.034180 0.213484
607.814453 0.206663
606.594727 0.205733
605.374023 0.196269
604.153320 0.206815
602.931641 0.202649
601.710938 0.199956
600.489258 0.203144
599.267578 0.195749
598.044922 0.190708
596.822266 0.195071
595.599609 0.192089
594.376953 0.190282
593.153320 0.183780
591.929688 0.189314
590.706055 0.188683
589.481445 0.181598
588.257813 0.184196
587.032227 0.186206
585.807617 0.180593
584.582031 0.178792
583.356445 0.189886
582.130859 0.179588
580.905273 0.180133
579.678711 0.182141
578.452148 0.178585
577.224609 0.184398
575.997070 0.183770
574.769531 0.181094
573.541992 0.184562
572.313477 0.190075
571.084961 0.183599
569.856445 0.182679
568.627930 0.191696
567.398438 0.185224
566.168945 0.188394
564.939453 0.185722
563.708984 0.188306
562.478516 0.182424
561.248047 0.186467
560.016602 0.179714
558.785156 0.180839
557.553711 0.183713
556.322266 0.183961
555.089844 0.179255
553.857422 0.178922
552.625000 0.182084
551.391602 0.180003
550.158203 0.185785
548.924805 0.179337
547.690430 0.185989
546.457031 0.183036
545.222656 0.180084
543.987305 0.181205
542.752930 0.192213
541.517578 0.190423
540.281250 0.189216
539.045898 0.180454
537.809570 0.190871
536.573242 0.190826
535.335938 0.185554
534.099609 0.188414
532.861328 0.195046
531.624023 0.178750
530.385742 0.191473
529.148438 0.174315
527.909180 0.192833
526.670898 0.193947
525.431641 0.191293
524.192383 0.188350
522.952148 0.192362
521.712891 0.198978
520.472656 0.190823
519.231445 0.203227
517.991211 0.196522
516.750000 0.202263
515.508789 0.202794
514.266602 0.206217
513.024414 0.185349
511.782227 0.204963
510.540039 0.197112
509.296875 0.197643
508.053711 0.198752
506.810547 0.209391
505.566406 0.201546
504.322266 0.214200
503.078125 0.205491
501.833008 0.202845
500.587891 0.207413
499.342773 0.198423
498.097656 0.214235
496.851563 0.210149
495.605469 0.210099
494.359375 0.213795
493.112305 0.224691
491.865234 0.201598
490.618164 0.216522
489.370117 0.223380
488.123047 0.226780
486.874023 0.229028
485.625977 0.235302
484.376953 0.237259
483.127930 0.228865
481.878906 0.255543
480.628906 0.247436
479.378906 0.261456
478.128906 0.256510
476.877930 0.275403
475.626953 0.273615
474.375977 0.276994
473.125000 0.280946
471.873047 0.294076
470.621094 0.316379
469.368164 0.311716
468.115234 0.329130
466.862305 0.347109
465.609375 0.379694
464.355469 0.395934
463.102539 0.432788
461.847656 0.480506
460.593750 0.524766
459.338867 0.600203
458.083984 0.676176
456.828125 0.742099
455.572266 0.778245
454.316406 0.784064
453.060547 0.768439
451.803711 0.707092
450.546875 0.630629
449.290039 0.567059
448.032227 0.504376
446.774414 0.467421
445.516602 0.423632
444.257813 0.411544
442.999023 0.382627
441.740234 0.367416
440.481445 0.364476
439.221680 0.343289
437.961914 0.340071
436.701172 0.320325
435.441406 0.326801
434.180664 0.324729
432.918945 0.334048
431.658203 0.347634
430.396484 0.338726
429.133789 0.339498
427.872070 0.322346
426.609375 0.333077
425.346680 0.326456
424.083008 0.315858
422.819336 0.324309
421.555664 0.312011
420.291016 0.310515
419.027344 0.318677
417.762695 0.321156
416.497070 0.322497
415.231445 0.334340
413.965820 0.322341
412.700195 0.328221
411.433594 0.349696
410.166992 0.344507
408.900391 0.369653
407.632813 0.363895
406.365234 0.370607
405.097656 0.390629
403.830078 0.385720
402.561523 0.385909
401.291992 0.412140
400.023438 0.409210
398.753906 0.414769
397.484375 0.430508
396.214844 0.453309
394.944336 0.450654
393.673828 0.469482
392.402344 0.452130
391.130859 0.465581
389.859375 0.494559
388.587891 0.491332
387.315430 0.495729
386.042969 0.510849
384.770508 0.507902
383.497070 0.495366
382.223633 0.500885
380.950195 0.506684
379.676758 0.507406
378.402344 0.509254
377.126953 0.507439
375.852539 0.503090
374.577148 0.500995
373.301758 0.503969
372.025391 0.510882
370.749023 0.509913
369.472656 0.502192
368.196289 0.498974
366.918945 0.489853
365.641602 0.491139
364.363281 0.481743
363.085938 0.487806
361.807617 0.483191
360.528320 0.446561
359.249023 0.457683
357.969727 0.449710
356.690430 0.449038
355.410156 0.426761
354.129883 0.432266
352.849609 0.431038
351.568359 0.411305
350.287109 0.408961
349.005859 0.409701
347.723633 0.405677
346.441406 0.397174
345.159180 0.398756
343.875977 0.392218
342.592773 0.391002
341.309570 0.366840
340.026367 0.359476
338.742188 0.345403
337.457031 0.344758
336.172852 0.345511
334.887695 0.339277
333.602539 0.326620
332.316406 0.338829
331.030273 0.330926
329.744141 0.327772
328.457031 0.314014
327.170898 0.322865
325.882813 0.314694
324.595703 0.310990
323.307617 0.320951
322.019531 0.309441
320.730469 0.314381
319.441406 0.318203
318.152344 0.312274
316.863281 0.303005
315.573242 0.306828
314.283203 0.305359
312.992188 0.316971
311.701172 0.313831
310.410156 0.320428
309.119141 0.319792
307.827148 0.326940
306.535156 0.318797
305.242188 0.329832
303.950195 0.333917
302.656250 0.334944
301.363281 0.356795
300.069336 0.356705
298.775391 0.368549
297.480469 0.376502
296.186523 0.382233
294.891602 0.407372
293.595703 0.416695
292.299805 0.439596
291.003906 0.449184
289.708008 0.466523
288.411133 0.484962
287.114258 0.507545
285.816406 0.532331
284.518555 0.564300
283.220703 0.565264
281.922852 0.589463
280.624023 0.575763
279.325195 0.602988
278.025391 0.613062
276.725586 0.610420
275.425781 0.610265
274.125977 0.628615
272.825195 0.644747
271.523438 0.676053
270.222656 0.690232
268.920898 0.727029
267.619141 0.752774
266.316406 0.781538
265.013672 0.830690
263.710938 0.861349
262.408203 0.901913
261.104492 0.968076
259.799805 0.973062
258.496094 1.013290
257.191406 1.057352
255.886719 1.095886
254.581055 1.118168
253.275391 1.145389
251.969727 1.190471
250.663086 1.217384
249.356445 1.260500
248.049805 1.285182
246.742188 1.301885
245.434570 1.335333
244.126953 1.345973
242.818359 1.351941
241.509766 1.325797
240.201172 1.308995
238.891602 1.308384
237.582031 1.263349
236.271484 1.236979
234.961914 1.197193
233.650391 1.188938
232.339844 1.141787
231.028320 1.109176
229.716797 1.125318
228.405273 1.097381
227.092773 1.065626
225.779297 1.036624
224.466797 1.019124
223.153320 0.993977
221.839844 0.967476
220.525391 0.966952
219.210938 0.964515
217.896484 0.942412
216.581055 0.912401
215.265625 0.917897
213.950195 0.906468
212.633789 0.913327
211.317383 0.894539
210.000977 0.866487
208.683594 0.859717
207.366211 0.850770
206.048828 0.841283
204.730469 0.835069
203.412109 0.829132
202.092773 0.807130
200.773438 0.804197
199.454102 0.794733
198.133789 0.779832
196.814453 0.809551
195.493164 0.810971
194.172852 0.805321
192.851563 0.804294
191.529297 0.816855
190.208008 0.804416
188.885742 0.809094
187.562500 0.815669
186.239258 0.846130
184.916016 0.845364
183.592773 0.863591
182.268555 0.871230
180.944336 0.886457
179.619141 0.902219
178.293945 0.903065
176.968750 0.930193
175.643555 0.938887
174.317383 0.940264
172.990234 0.959779
171.664063 0.977661
170.336914 0.976590
169.008789 0.989046
167.680664 0.986891
166.352539 1.006638
165.024414 1.051783
163.695313 1.062854
162.366211 1.099585
161.036133 1.126843
159.706055 1.183249
158.375977 1.220997
157.044922 1.255487
155.713867 1.311273
154.382813 1.373233
153.050781 1.414935
151.718750 1.474946
150.385742 1.495306
149.053711 1.546910
147.719727 1.572896
146.386719 1.603715
145.052734 1.597901
143.717773 1.657765
142.383789 1.644943
141.048828 1.643695
139.712891 1.659660
138.377930 1.664861
137.041016 1.662263
135.705078 1.658592
134.368164 1.650355
133.031250 1.630841
131.693359 1.639263
130.355469 1.646070
129.017578 1.625498
127.678711 1.602523
126.339844 1.650639
125.000977 1.616674
123.661133 1.633663
122.321289 1.598112
120.980469 1.611612
119.639648 1.619480
118.298828 1.637518
116.957031 1.628775
115.615234 1.641180
114.273438 1.651170
112.930664 1.661957
111.587891 1.702421
110.244141 1.687254
108.900391 1.673698
107.556641 1.648659
106.211914 1.616154
104.867188 1.534260
103.522461 1.439862
102.176758 1.337241
100.831055 1.197851
99.484375 1.039597
98.137695 0.892630
